WAVE,FLUX,ERR,SKYBACK
5987.1514,4.4572957E-14,7.897645E-17,1.5739519E-16
5991.3657,4.425539E-14,7.866435E-17,1.5597764E-16
5995.5796,4.367211E-14,8.173723E-17,1.5566623E-16
5999.7935,4.3577534E-14,7.797799E-17,1.5745613E-16
6004.0073,4.3235387E-14,7.762387E-17,1.5522956E-16
6008.221,4.28076E-14,7.718341E-17,1.4189481E-16
6012.435,4.248614E-14,7.684378E-17,1.4151349E-16
6016.649,4.2473654E-14,7.6785085E-17,1.4532654E-16
6020.863,4.2093655E-14,7.639963E-17,1.5355809E-16
6025.077,4.1900518E-14,7.6172065E-17,1.5093205E-16
6029.291,4.1494104E-14,7.575114E-17,1.4922067E-16
6033.505,4.1198795E-14,7.542571E-17,1.4377423E-16
6037.7188,4.118887E-14,7.5363724E-17,1.4359313E-16
6041.9326,4.1020393E-14,7.850863E-17,1.4142114E-16
6046.1465,4.084444E-14,7.813426E-17,1.4462746E-16
6050.3604,4.0611825E-14,7.787075E-17,1.4481128E-16
6054.574,4.0239252E-14,7.7467886E-17,1.5029135E-16
6058.7886,3.970734E-14,7.691063E-17,1.5115299E-16
6063.0024,3.90081E-14,7.620489E-17,1.507054E-16
6067.2163,3.821438E-14,7.539152E-17,1.4456985E-16
6071.43,3.7515835E-14,7.461824E-17,1.422269E-16
6075.644,3.6297273E-14,7.3379013E-17,1.4492476E-16
6079.858,3.4943392E-14,7.2076733E-17,1.4134534E-16
6084.072,3.3366027E-14,6.99603E-17,1.3999886E-16
6088.2856,3.157438E-14,6.5070136E-17,1.4565299E-16
6092.5,3.0073573E-14,6.3476695E-17,1.487427E-16
6096.714,2.8248205E-14,6.4688594E-17,1.4899459E-16
6100.9277,2.659769E-14,6.2932126E-17,1.4639261E-16
6105.1416,2.509965E-14,6.12371E-17,1.4465646E-16
6109.3555,2.3447981E-14,5.9304456E-17,1.3937091E-16
6113.5693,2.1936703E-14,5.755601E-17,1.4180249E-16
6117.783,2.0691954E-14,5.6057964E-17,1.420819E-16
6121.997,1.9459156E-14,5.451585E-17,1.448069E-16
6126.2114,1.8661662E-14,5.351698E-17,1.5200348E-16
6130.4253,1.7913744E-14,5.253169E-17,1.5537051E-16
6134.639,1.7477766E-14,5.1940543E-17,1.5838371E-16
6138.853,1.704527E-14,5.133603E-17,1.5659335E-16
6143.067,1.6711401E-14,5.0869192E-17,1.51721E-16
6147.281,1.6558273E-14,5.0612022E-17,1.4280458E-16
6151.4946,1.6587312E-14,5.0621293E-17,1.4070819E-16
6155.7085,1.6689768E-14,5.07494E-17,1.4870099E-16
6159.923,1.7066121E-14,5.1227123E-17,1.5568717E-16
6164.1367,1.7510194E-14,5.1765754E-17,1.5582015E-16
6168.3506,1.8444596E-14,5.2931618E-17,1.5805444E-16
6172.5645,1.9696055E-14,5.442284E-17,1.483277E-16
6176.7783,2.0915105E-14,5.585548E-17,1.420978E-16
6180.992,2.2173288E-14,5.728581E-17,1.4264622E-16
6185.206,2.3375204E-14,5.8578906E-17,1.4034714E-16
6189.42,2.4338848E-14,5.9639054E-17,1.4581737E-16
6193.634,2.5526226E-14,6.086024E-17,1.4281497E-16
6197.848,2.6579467E-14,6.196581E-17,1.437852E-16
6202.062,2.7593072E-14,6.2979606E-17,1.4673979E-16
6206.276,2.8942865E-14,6.10544E-17,1.4483526E-16
6210.4897,2.9920145E-14,6.2019296E-17,1.4842593E-16
6214.7036,3.079583E-14,6.2857706E-17,1.4912356E-16
6218.9175,3.1712144E-14,6.6981546E-17,1.5747642E-16
6223.1313,3.2531073E-14,6.7755555E-17,1.8430926E-16
6227.345,3.3298708E-14,6.848489E-17,1.9814009E-16
6231.5596,3.4138165E-14,6.925829E-17,2.0789536E-16
6235.7734,3.4955827E-14,6.987336E-17,1.8842277E-16
6239.9873,3.552975E-14,7.02855E-17,1.6680268E-16
6244.201,3.6023827E-14,7.0802796E-17,1.6953333E-16
6248.415,3.6514618E-14,7.12117E-17,1.7951629E-16
6252.629,3.6823375E-14,7.143934E-17,1.8939932E-16
6256.843,3.7242385E-14,7.1726624E-17,1.8582922E-16
6261.0566,3.732573E-14,7.171956E-17,1.6536205E-16
6265.271,3.7307475E-14,7.1578605E-17,1.5845846E-16
6269.485,3.716057E-14,6.7920376E-17,1.4461126E-16
6273.6987,3.7123387E-14,7.102511E-17,1.607691E-16
6277.9126,3.746131E-14,7.1225876E-17,1.7135355E-16
6282.1265,3.8140366E-14,7.172461E-17,1.7509063E-16
6286.3403,3.8298815E-14,7.192867E-17,2.5016988E-16
6290.554,3.8266756E-14,7.1969954E-17,3.1141976E-16
6294.768,3.8285117E-14,7.2015343E-17,3.2715552E-16
6298.9824,3.816861E-14,7.18557E-17,3.0347163E-16
6303.1963,3.8059762E-14,7.1856703E-17,2.0429226E-16
6307.41,3.764773E-14,7.142139E-17,1.672797E-16
6311.624,3.7922634E-14,7.1556814E-17,1.5360343E-16
6315.838,3.8150445E-14,6.8337176E-17,1.7228961E-16
6320.052,3.8175775E-14,6.834977E-17,1.8431187E-16
6324.2656,3.817934E-14,6.831292E-17,1.7395236E-16
6328.4795,3.8144137E-14,6.823637E-17,1.6789006E-16
6332.694,3.7916468E-14,6.7973865E-17,1.5394506E-16
6336.9077,3.782616E-14,6.783518E-17,1.4758103E-16
6341.1216,3.7796877E-14,6.775816E-17,1.529325E-16
6345.3354,3.787965E-14,6.778244E-17,1.6699633E-16
6349.5493,3.7587534E-14,6.748004E-17,1.860516E-16
6353.763,3.7439104E-14,6.7307316E-17,2.0730315E-16
6357.977,3.7311568E-14,6.7121955E-17,1.968403E-16
6362.191,3.7071044E-14,6.683583E-17,1.8518875E-16
6366.405,3.707464E-14,6.675395E-17,1.5941373E-16
6370.619,3.698571E-14,6.660147E-17,1.4697595E-16
6374.833,3.681407E-14,6.63966E-17,1.5446858E-16
6379.047,3.6660707E-14,6.6197994E-17,1.5348711E-16
6383.2607,3.6625464E-14,6.610192E-17,1.4780604E-16
6387.4746,3.637648E-14,6.5818245E-17,1.4627109E-16
6391.6885,3.644634E-14,6.581407E-17,1.4010456E-16
6395.9023,3.636205E-14,6.5678385E-17,1.3822956E-16
6400.116,3.614695E-14,6.5432183E-17,1.4387068E-16
6404.3306,3.592042E-14,6.517061E-17,1.4279338E-16
6408.5444,3.5872455E-14,6.506923E-17,1.4233433E-16
6412.7583,3.561991E-14,6.479033E-17,1.4783905E-16
6416.972,3.5696933E-14,6.479627E-17,1.4179742E-16
6421.186,3.564181E-14,6.4685365E-17,1.3670904E-16
6425.4,3.5378777E-14,6.439275E-17,1.3658904E-16
6429.614,3.513125E-14,6.410978E-17,1.3391238E-16
6433.8276,3.5109424E-14,6.403605E-17,1.3721419E-16
6438.042,3.513274E-14,6.399984E-17,1.3830256E-16
6442.256,3.4792515E-14,6.3635276E-17,1.4105166E-16
6446.4697,3.4588655E-14,6.338965E-17,1.4449763E-16
6450.6836,3.4278868E-14,6.3047455E-17,1.5365712E-16
6454.8975,3.4157732E-14,6.2873105E-17,1.6907196E-16
6459.1113,3.395371E-14,6.261553E-17,1.8494902E-16
6463.325,3.381832E-14,6.2392685E-17,1.8139113E-16
6467.539,3.3688042E-14,6.21617E-17,1.6862421E-16
6471.7534,3.3592544E-14,6.196768E-17,1.5487889E-16
6475.9673,3.3290387E-14,6.160485E-17,1.4200964E-16
6480.181,3.344307E-14,6.169357E-17,1.3886638E-16
6484.395,3.3483212E-14,6.172014E-17,1.4895736E-16
6488.609,3.342944E-14,6.1677955E-17,1.7267083E-16
6492.8228,3.3349E-14,6.161131E-17,1.887045E-16
6497.0366,3.335104E-14,6.159896E-17,1.869674E-16
6501.2505,3.314023E-14,6.135321E-17,1.6528454E-16
6505.465,3.295372E-14,6.111154E-17,1.5130242E-16
6509.6787,3.2550226E-14,6.066156E-17,1.4591582E-16
6513.8926,3.247673E-14,6.052837E-17,1.4588385E-16
6518.1064,3.246372E-14,6.0485266E-17,1.5109297E-16
6522.3203,3.2486343E-14,6.05142E-17,1.7271077E-16
6526.534,3.2379508E-14,6.042061E-17,1.8574143E-16
6530.748,3.2098395E-14,6.013898E-17,1.8561454E-16
6534.962,3.1947057E-14,5.994175E-17,1.660098E-16
6539.1763,3.1780395E-14,5.974178E-17,1.6593956E-16
6543.39,3.160358E-14,5.954457E-17,1.8036062E-16
6547.604,3.1431245E-14,5.934088E-17,1.777304E-16
6551.818,3.1189806E-14,5.9094054E-17,1.8701061E-16
6556.0317,3.107332E-14,5.895366E-17,1.7834015E-16
6560.2456,3.0940626E-14,5.879633E-17,1.6527906E-16
6564.4595,3.085162E-14,5.870294E-17,1.7655409E-16
6568.6733,3.069354E-14,5.853699E-17,1.8195321E-16
6572.887,3.0448476E-14,5.8280195E-17,1.77546E-16
6577.1016,3.0473396E-14,5.828507E-17,1.770934E-16
6581.3154,3.049218E-14,5.830056E-17,1.9176405E-16
6585.5293,3.0207855E-14,5.865955E-17,2.1125727E-16
6589.743,3.024936E-14,5.807031E-17,2.27418E-16
6593.957,2.9881632E-14,5.768318E-17,2.1038361E-16
6598.171,2.955281E-14,5.732281E-17,1.8577591E-16
6602.385,2.9422262E-14,5.7164844E-17,1.7628795E-16
6606.5986,2.9175393E-14,5.691273E-17,1.8439051E-16
6610.813,2.9050774E-14,5.6776936E-17,1.9155011E-16
6615.027,2.880728E-14,5.6501935E-17,1.7632825E-16
6619.2407,2.8620403E-14,5.6269285E-17,1.5290387E-16
6623.4546,2.845202E-14,5.6073634E-17,1.4718862E-16
6627.6685,2.8288522E-14,5.588435E-17,1.4215915E-16
6631.8823,2.809141E-14,5.566557E-17,1.4252266E-16
6636.096,2.799591E-14,5.554115E-17,1.3781024E-16
6640.31,2.7739528E-14,5.5260648E-17,1.3385607E-16
6644.5244,2.7661796E-14,5.516287E-17,1.3840544E-16
6648.7383,2.7390933E-14,5.4866642E-17,1.3362996E-16
6652.952,2.7181296E-14,5.4637013E-17,1.3621239E-16
6657.166,2.7237252E-14,5.4671543E-17,1.3849824E-16
6661.38,2.7010227E-14,5.4418833E-17,1.3469051E-16
6665.5938,2.6881087E-14,5.4271985E-17,1.3929695E-16
6669.8076,2.6689361E-14,5.405113E-17,1.3334151E-16
6674.0215,2.6667662E-14,5.400694E-17,1.3352797E-16
6678.236,2.6501025E-14,5.3820268E-17,1.364148E-16
6682.4497,2.6248685E-14,5.353817E-17,1.306476E-16
6686.6636,2.6062563E-14,5.332749E-17,1.3086374E-16
6690.8774,2.6106843E-14,5.334853E-17,1.2981757E-16
6695.0913,2.5908229E-14,5.3130542E-17,1.3374898E-16
6699.305,2.581455E-14,5.3012556E-17,1.335295E-16
6703.519,2.5652721E-14,5.2827996E-17,1.3614493E-16
6707.733,2.5643489E-14,5.279269E-17,1.312936E-16
6711.9473,2.544254E-14,5.2565326E-17,1.3095902E-16
6716.161,2.5463133E-14,5.2568913E-17,1.3369217E-16
6720.375,2.5384566E-14,5.2463745E-17,1.3122576E-16
6724.589,2.5084928E-14,5.2137882E-17,1.3219686E-16
6728.8027,2.4975227E-14,5.2299067E-17,1.361052E-16
6733.0166,2.5004465E-14,5.2305525E-17,1.3482022E-16
6737.2305,2.4806639E-14,5.209084E-17,1.4578937E-16
6741.4443,2.4653858E-14,5.191522E-17,1.502699E-16
6745.6587,2.4568379E-14,5.180677E-17,1.5263203E-16
6749.8726,2.43881E-14,5.1602074E-17,1.55076E-16
6754.0864,2.4263449E-14,5.144473E-17,1.4686618E-16
6758.3003,2.405063E-14,5.1202195E-17,1.4535898E-16
6762.514,2.386183E-14,5.0980362E-17,1.4020431E-16
6766.728,2.3939389E-14,5.1041057E-17,1.3659987E-16
6770.942,2.3839898E-14,5.091274E-17,1.3108035E-16
6775.156,2.3637825E-14,5.0688698E-17,1.3644589E-16
6779.3696,2.3563484E-14,5.0596583E-17,1.3993654E-16
6783.584,2.3542459E-14,5.0561643E-17,1.4462751E-16
6787.798,2.3514172E-14,5.050831E-17,1.3864456E-16
6792.0117,2.34189E-14,5.0384296E-17,1.3310937E-16
6796.2256,2.3339671E-14,5.0278834E-17,1.3010782E-16
6800.4395,2.3290994E-14,5.02102E-17,1.3332688E-16
6804.6533,2.3293338E-14,5.018956E-17,1.2959756E-16
6808.867,2.3280204E-14,5.0154445E-17,1.2849015E-16
6813.081,2.320608E-14,4.9787402E-17,1.3789637E-16
6817.2954,2.3126798E-14,4.973042E-17,1.8037969E-16
6821.5093,2.3088844E-14,4.9733834E-17,2.3635568E-16
6825.723,2.2957391E-14,4.9605333E-17,2.6181481E-16
6829.937,2.2877921E-14,4.9487433E-17,2.5016986E-16
6834.151,2.285729E-14,4.9398545E-17,2.0723325E-16
6838.3647,2.2770112E-14,4.9234343E-17,1.631099E-16
6842.5786,2.2617259E-14,4.9019762E-17,1.4577454E-16
6846.7925,2.2588971E-14,4.891389E-17,1.4197524E-16
6851.007,2.2692526E-14,4.8878202E-17,1.790758E-16
6855.2207,2.2298598E-14,4.8085445E-17,2.2442548E-16
6859.4346,2.086364E-14,4.5809233E-17,2.2308127E-16
6863.6484,1.9694475E-14,4.358711E-17,2.036416E-16
6867.8623,1.9444861E-14,4.2442306E-17,1.5422726E-16
6872.076,2.0513534E-14,4.3166933E-17,1.3184294E-16
6876.29,2.16948E-14,4.4519684E-17,1.4156721E-16
6880.504,2.1764915E-14,4.4975408E-17,1.5101465E-16
6884.7183,2.1178407E-14,4.4676213E-17,1.4727722E-16
6888.932,2.0580243E-14,4.4215034E-17,1.4782689E-16
6893.146,2.069086E-14,4.4457404E-17,1.4695859E-16
6897.36,2.0900313E-14,4.4853075E-17,1.4337941E-16
6901.5737,2.0923196E-14,4.5142598E-17,1.5542671E-16
6905.7876,2.0814168E-14,4.5312974E-17,1.5989923E-16
6910.0015,2.0745582E-14,4.5523313E-17,1.7777816E-16
6914.2153,2.0663757E-14,4.5674045E-17,1.9780431E-16
6918.4297,2.0487279E-14,4.5620374E-17,1.7859695E-16
6922.6436,2.0287566E-14,4.5505475E-17,1.7414926E-16
6926.8574,2.0089792E-14,4.534072E-17,1.62155E-16
6931.0713,1.9890446E-14,4.5148712E-17,1.5697719E-16
6935.285,1.9753181E-14,4.5026882E-17,1.7248259E-16
6939.499,1.964882E-14,4.4961554E-17,2.0646044E-16
6943.713,1.9640775E-14,4.497117E-17,2.0652282E-16
6947.927,1.9613744E-14,4.4952177E-17,1.8894106E-16
6952.141,1.9602731E-14,4.4949428E-17,1.5927946E-16
6956.355,1.9569272E-14,4.495206E-17,1.435233E-16
6960.569,1.9632379E-14,4.5112115E-17,1.5426713E-16
6964.7827,1.9714756E-14,4.530055E-17,1.6882289E-16
6968.9966,1.9541635E-14,4.5182633E-17,1.856343E-16
6973.2104,1.9408312E-14,4.50445E-17,1.8243224E-16
6977.4243,1.9255392E-14,4.4832842E-17,1.7328076E-16
6981.638,1.9042132E-14,4.450642E-17,1.4952793E-16
6985.852,1.908998E-14,4.449552E-17,1.425911E-16
6990.0664,1.9049061E-14,4.4426018E-17,1.5617629E-16
6994.2803,1.8954693E-14,4.4322293E-17,1.7092962E-16
6998.494,1.8914952E-14,4.4277992E-17,1.699598E-16
7002.708,1.886345E-14,4.4211295E-17,1.5711482E-16
7006.922,1.8761266E-14,4.409561E-17,1.5164725E-16
7011.1357,1.865503E-14,4.396941E-17,1.4503938E-16
7015.3496,1.8559402E-14,4.3846985E-17,1.3375713E-16
7019.5635,1.8536935E-14,4.3825587E-17,1.3032077E-16
7023.778,1.8478783E-14,4.3773352E-17,1.2809522E-16
7027.9917,1.8329349E-14,4.3628602E-17,1.2771131E-16
7032.2056,1.8349615E-14,4.369973E-17,1.4096592E-16
7036.4194,1.8272896E-14,4.3636024E-17,1.4442906E-16
7040.6333,1.818465E-14,4.3554464E-17,1.5241242E-16
7044.847,1.8144931E-14,4.351485E-17,1.5432138E-16
7049.061,1.7970778E-14,4.3308318E-17,1.4902601E-16
7053.275,1.8004429E-14,4.334515E-17,1.4080503E-16
7057.4893,1.7921859E-14,4.3258856E-17,1.3965358E-16
7061.703,1.7872365E-14,4.3225177E-17,1.4358858E-16
7065.917,1.7967556E-14,4.335529E-17,1.4139903E-16
7070.131,1.7797685E-14,4.3171456E-17,1.4190268E-16
7074.3447,1.7762015E-14,4.3143656E-17,1.4356915E-16
7078.5586,1.7679893E-14,4.3066513E-17,1.5100142E-16
7082.7725,1.7646846E-14,4.30409E-17,1.511785E-16
7086.9863,1.7605277E-14,4.2994214E-17,1.4525526E-16
7091.2007,1.7466604E-14,4.2824652E-17,1.3612786E-16
7095.4146,1.746077E-14,4.281904E-17,1.3232498E-16
7099.6284,1.7433578E-14,4.279321E-17,1.335191E-16
7103.8423,1.7461012E-14,4.2826757E-17,1.2915549E-16
7108.056,1.7450366E-14,4.282364E-17,1.2812054E-16
7112.27,1.7335708E-14,4.2697296E-17,1.305321E-16
7116.484,1.7230922E-14,4.258188E-17,1.3208285E-16
7120.6978,1.7304905E-14,4.2682222E-17,1.3600014E-16
7124.912,1.7305171E-14,4.268235E-17,1.3467842E-16
7129.126,1.7247893E-14,4.2610016E-17,1.3387107E-16
7133.34,1.731171E-14,4.2685004E-17,1.3607813E-16
7137.5537,1.7296484E-14,4.2665136E-17,1.4125496E-16
7141.7676,1.719774E-14,4.253396E-17,1.4380328E-16
7145.9814,1.7163456E-14,4.2468005E-17,1.4028267E-16
7150.1953,1.7127784E-14,4.238079E-17,1.3554012E-16
7154.409,1.7161425E-14,4.2339574E-17,1.3232672E-16
7158.6235,1.6906532E-14,4.1883916E-17,1.3183472E-16
7162.8374,1.6477837E-14,4.1129534E-17,1.2791565E-16
7167.0513,1.621876E-14,4.0526788E-17,1.2601742E-16
7171.265,1.610005E-14,4.007758E-17,1.2339171E-16
7175.479,1.612675E-14,3.9825246E-17,1.1914613E-16
7179.693,1.6240225E-14,3.9720674E-17,1.1842782E-16
7183.9067,1.6207735E-14,3.950093E-17,1.1588524E-16
7188.1206,1.6284029E-14,3.9497646E-17,1.1300106E-16
7192.3345,1.6341929E-14,3.957698E-17,1.1736082E-16
7196.549,1.6457452E-14,3.9813917E-17,1.1821715E-16
7200.7627,1.6730298E-14,4.0337224E-17,1.1521195E-16
7204.9766,1.709564E-14,4.1077548E-17,1.210891E-16
7209.1904,1.7367442E-14,4.1741426E-17,1.2432069E-16
7213.4043,1.7357655E-14,4.201465E-17,1.2596551E-16
7217.618,1.7192165E-14,4.1956516E-17,1.2914797E-16
7221.832,1.6795937E-14,4.1445405E-17,1.3346375E-16
7226.046,1.6498291E-14,4.0964565E-17,1.7511328E-16
7230.2603,1.6274002E-14,4.059085E-17,2.7605934E-16
7234.474,1.6255037E-14,4.0494356E-17,3.751267E-16
7238.688,1.6438631E-14,4.0646415E-17,4.0733267E-16
7242.902,1.6487252E-14,4.0626506E-17,3.5730102E-16
7247.1157,1.6616935E-14,4.0696098E-17,2.559022E-16
7251.3296,1.6476727E-14,4.049422E-17,1.7784297E-16
7255.5435,1.6424794E-14,4.0462787E-17,1.5246347E-16
7259.7573,1.6385978E-14,4.0455885E-17,1.5272504E-16
7263.9717,1.6395317E-14,4.0579585E-17,2.3406257E-16
7268.1855,1.6367833E-14,4.0633153E-17,3.147706E-16
7272.3994,1.6459654E-14,4.0793907E-17,3.6129317E-16
7276.6133,1.6480812E-14,4.085052E-17,3.6594153E-16
7280.827,1.644793E-14,4.0748853E-17,2.728918E-16
7285.041,1.635228E-14,4.061852E-17,2.1733633E-16
7289.255,1.6171705E-14,4.039627E-17,1.8715593E-16
7293.4688,1.6095452E-14,4.0334908E-17,1.8957141E-16
7297.683,1.6099494E-14,4.0374378E-17,1.9360666E-16
7301.897,1.605768E-14,4.0387203E-17,2.1890105E-16
7306.111,1.5901851E-14,4.031475E-17,2.7809307E-16
7310.3247,1.594503E-14,4.0438044E-17,2.8605295E-16
7314.5386,1.5868136E-14,4.044193E-17,2.937998E-16
7318.7524,1.589746E-14,4.0551762E-17,2.7034838E-16
7322.9663,1.5772367E-14,4.043454E-17,2.2094525E-16
7327.18,1.5703223E-14,4.0480998E-17,2.5937496E-16
7331.3945,1.5515074E-14,4.0402085E-17,3.3478752E-16
7335.6084,1.5384927E-14,4.026853E-17,3.285519E-16
7339.8223,1.5308526E-14,4.017113E-17,3.109675E-16
7344.036,1.5064508E-14,3.9781862E-17,2.4637655E-16
7348.25,1.4853084E-14,3.9445868E-17,2.039349E-16
7352.464,1.467535E-14,3.9215508E-17,2.1186512E-16
7356.6777,1.4639392E-14,3.9220904E-17,2.6026212E-16
7360.8916,1.4594864E-14,3.920754E-17,2.9850164E-16
7365.106,1.4594698E-14,3.9189207E-17,2.823423E-16
7369.32,1.4513181E-14,3.906221E-17,2.5520012E-16
7373.5337,1.4322558E-14,3.873801E-17,1.8764028E-16
7377.7476,1.40427585E-14,3.8332E-17,1.5180105E-16
7381.9614,1.3797871E-14,3.8032183E-17,1.6631735E-16
7386.1753,1.37685544E-14,3.802854E-17,1.8857636E-16
7390.389,1.3743124E-14,3.806698E-17,2.3561643E-16
7394.603,1.3711145E-14,3.8051215E-17,2.485465E-16
7398.817,1.3641686E-14,3.7945147E-17,2.3293406E-16
7403.0312,1.3525219E-14,3.776278E-17,2.0807464E-16
7407.245,1.3348845E-14,3.7458894E-17,1.5942396E-16
7411.459,1.3129032E-14,3.7132197E-17,1.4115648E-16
7415.673,1.31996016E-14,3.7231846E-17,1.4071535E-16
7419.8867,1.31405845E-14,3.7170754E-17,1.533584E-16
7424.1006,1.3161368E-14,3.7222757E-17,1.6811497E-16
7428.3145,1.3131549E-14,3.7224014E-17,1.9535825E-16
7432.5283,1.3007301E-14,3.7053645E-17,1.944803E-16
7436.7427,1.2858636E-14,3.683253E-17,1.816068E-16
7440.9565,1.26643276E-14,3.6534903E-17,1.6252376E-16
7445.1704,1.2554911E-14,3.6344046E-17,1.3649804E-16
7449.3843,1.233452E-14,3.6036203E-17,1.3759874E-16
7453.598,1.2066651E-14,3.5674695E-17,1.5087222E-16
7457.812,1.1794571E-14,3.5308876E-17,1.670786E-16
7462.026,1.14990635E-14,3.492456E-17,1.9536509E-16
7466.2397,1.1276198E-14,3.463847E-17,2.2008182E-16
7470.454,1.1051077E-14,3.432751E-17,2.337873E-16
7474.668,1.095507E-14,3.4196365E-17,2.389873E-16
7478.882,1.07653695E-14,3.387991E-17,2.1654941E-16
7483.0957,1.0612219E-14,3.361445E-17,1.9298063E-16
7487.3096,1.0513028E-14,3.3422868E-17,1.653419E-16
7491.5234,1.0411274E-14,3.3237242E-17,1.4501678E-16
7495.7373,1.03557045E-14,3.3149974E-17,1.416814E-16
7499.951,1.0436339E-14,3.326869E-17,1.3388336E-16
7504.1655,1.0419546E-14,3.3255476E-17,1.3838925E-16
7508.3794,1.0534853E-14,3.346926E-17,1.5555126E-16
7512.5933,1.06195096E-14,3.370008E-17,2.1399534E-16
7516.807,1.0651196E-14,3.3823627E-17,2.5666057E-16
7521.021,1.0735466E-14,3.398872E-17,2.7417985E-16
7525.235,1.0725517E-14,3.3943912E-17,2.4779536E-16
7529.4487,1.0711625E-14,3.3861995E-17,2.030411E-16
7533.6626,1.0717849E-14,3.3828815E-17,1.689219E-16
7537.877,1.0756642E-14,3.3868387E-17,1.4806872E-16
7542.091,1.0766946E-14,3.3888498E-17,1.4204355E-16
7546.3047,1.0823432E-14,3.3997325E-17,1.4772713E-16
7550.5186,1.0836154E-14,3.4043286E-17,1.5456297E-16
7554.7324,1.0843075E-14,3.408655E-17,1.652211E-16
7558.9463,1.0865077E-14,3.4174143E-17,1.8896294E-16
7563.16,1.0882929E-14,3.4256994E-17,2.1456152E-16
7567.374,1.089516E-14,3.429483E-17,2.18726E-16
7571.5884,1.0912886E-14,3.4299117E-17,2.1084602E-16
7575.8022,1.1000553E-14,3.4303256E-17,1.8559974E-16
7580.016,1.093171E-14,3.3860152E-17,1.6461353E-16
7584.23,1.0524829E-14,3.2473083E-17,1.5184175E-16
7588.444,9.439757E-15,2.9417765E-17,1.3783497E-16
7592.6577,7.876195E-15,2.7725048E-17,1.059169E-16
7596.8716,6.2859704E-15,2.171073E-17,8.2262047E-17
7601.0854,5.979301E-15,2.2336267E-17,7.024896E-17
7605.2993,8.1629344E-15,2.3282143E-17,7.7573607E-17
7609.5137,1.0586754E-14,2.5162017E-17,1.00711655E-16
7613.7275,1.12849505E-14,2.5888351E-17,1.1960353E-16
7617.9414,1.0698797E-14,2.6386863E-17,1.3080571E-16
7622.1553,9.6090425E-15,2.5521903E-17,1.2173935E-16
7626.369,8.818786E-15,2.4476041E-17,1.07868197E-16
7630.583,9.1294515E-15,2.4829168E-17,1.02207694E-16
7634.797,9.55769E-15,2.5596166E-17,9.222885E-17
7639.0107,1.00573E-14,2.6821282E-17,9.5387596E-17
7643.225,1.0286224E-14,2.7950486E-17,1.0657418E-16
