WAVE,FLUX,ERR,SKYBACK
6005.3677,4.5384744E-14,1.7953127E-16,-9.61776E-18
6009.579,4.4960173E-14,1.7855241E-16,-2.2498995E-17
6013.79,4.4763882E-14,1.7807561E-16,-1.0113432E-17
6018.001,4.4114533E-14,1.7667344E-16,-1.6443037E-17
6022.212,4.3638226E-14,1.7552803E-16,-5.185945E-17
6026.4233,4.352107E-14,1.7517975E-16,-4.8492312E-17
6030.6343,4.2989605E-14,1.7408852E-16,-6.66977E-18
6034.845,4.2327385E-14,1.7265628E-16,-8.552705E-18
6039.0566,4.1630202E-14,1.7109833E-16,-2.583095E-17
6043.2676,4.0912447E-14,1.6951419E-16,-3.1627214E-17
6047.4785,4.0225046E-14,1.6794256E-16,-5.429834E-17
6051.6895,3.945782E-14,1.6632159E-16,-2.1866015E-17
6055.901,3.8541805E-14,1.6431282E-16,-1.2292241E-17
6060.112,3.7741474E-14,1.6249676E-16,-2.236295E-17
6064.3228,3.66705E-14,1.6015829E-16,1.8474423E-18
6068.534,3.600059E-14,1.5846556E-16,-5.638707E-17
6072.745,3.546915E-14,1.5745485E-16,5.377988E-17
6076.956,3.444146E-14,1.5493845E-16,-9.945061E-18
6081.167,3.3562874E-14,1.5277094E-16,-5.0729508E-17
6085.3784,3.2437828E-14,1.502003E-16,-2.6802078E-17
6089.5894,3.149162E-14,1.480023E-16,3.519529E-19
6093.8003,3.0503513E-14,1.4564811E-16,1.08202876E-17
6098.011,2.9268773E-14,1.4263798E-16,3.2746438E-18
6102.2227,2.8207563E-14,1.4000533E-16,7.594892E-18
6106.4336,2.7492745E-14,1.419501E-16,-7.569305E-18
6110.6445,2.7286233E-14,1.4193964E-16,-1.8024362E-17
6114.856,2.7052489E-14,1.4128626E-16,-4.4493962E-17
6119.067,2.7184596E-14,1.3710418E-16,-8.022012E-18
6123.278,2.7004229E-14,1.3664325E-16,1.409274E-17
6127.489,2.6969031E-14,1.3636837E-16,-2.0122745E-17
6131.7,2.7667784E-14,1.3793692E-16,-3.7321493E-17
6135.911,2.829295E-14,1.3940542E-16,-1.8553393E-17
6140.122,2.901036E-14,1.4098088E-16,-3.1566274E-17
6144.333,2.9835333E-14,1.4290149E-16,-9.541788E-18
6148.5444,3.0876357E-14,1.4509562E-16,-5.616654E-17
6152.7554,3.1887104E-14,1.475088E-16,1.9764778E-17
6156.9663,3.264391E-14,1.4903023E-16,-1.5197407E-17
6161.1777,3.3352485E-14,1.504785E-16,-2.4571344E-17
6165.3887,3.4357042E-14,1.5253586E-16,-4.1054198E-17
6169.5996,3.4997223E-14,1.5380991E-16,-4.342979E-17
6173.8105,3.56584E-14,1.5517532E-16,-2.4576242E-17
6178.022,3.6244577E-14,1.5634379E-16,-9.763442E-18
6182.233,3.6878442E-14,1.5749134E-16,-4.31624E-17
6186.444,3.74245E-14,1.5857452E-16,-2.3997444E-17
6190.655,3.836672E-14,1.6043471E-16,-1.0595874E-17
6194.866,3.8784643E-14,1.611131E-16,-4.293863E-17
6199.077,3.9824975E-14,1.6314174E-16,-3.4850115E-17
6203.288,4.0321753E-14,1.6409377E-16,-1.9706064E-18
6207.4995,4.091182E-14,1.6509559E-16,-3.01823E-17
6211.7104,4.1400514E-14,1.6597263E-16,-2.7005669E-17
6215.9214,4.2008372E-14,1.6709816E-16,-6.390988E-18
6220.1323,4.2499715E-14,1.679907E-16,1.3602054E-17
6224.3438,4.2989605E-14,1.6879159E-16,-5.3352248E-18
6228.5547,4.348412E-14,1.6959789E-16,-2.0055633E-17
6232.7656,4.3519126E-14,1.6963027E-16,5.759191E-18
6236.9766,4.3792447E-14,1.6998356E-16,-2.0139598E-17
6241.188,4.4067997E-14,1.7038645E-16,-2.0144588E-17
6245.399,4.4629546E-14,1.7132218E-16,-2.2634163E-17
6249.61,4.4699945E-14,1.7131068E-16,-2.6390618E-18
6253.8213,4.508459E-14,1.7170125E-16,-2.4129697E-17
6258.032,4.5034126E-14,1.7122504E-16,2.4623399E-18
6262.243,4.4721446E-14,1.7006828E-16,-2.2378207E-17
6266.454,4.468806E-14,1.6947558E-16,-4.384778E-17
6270.6655,4.4897507E-14,1.6963463E-16,-2.2205223E-17
6274.8765,4.5012947E-14,1.697713E-16,-1.5096367E-17
6279.0874,4.5225562E-14,1.701437E-16,-2.641129E-17
6283.299,4.5269252E-14,1.7033811E-16,1.9836211E-17
6287.51,4.4858177E-14,1.6960345E-16,2.5212303E-17
6291.7207,4.5268185E-14,1.7051976E-16,5.207552E-17
6295.9316,4.4941532E-14,1.6996297E-16,2.0625315E-17
6300.143,4.5085057E-14,1.7028707E-16,-1.2982523E-17
6304.354,4.508367E-14,1.7041579E-16,7.130226E-18
6308.565,4.4740375E-14,1.698098E-16,-5.1084457E-19
6312.776,4.4927495E-14,1.7012339E-16,-2.1857698E-17
6316.9873,4.4627073E-14,1.6958408E-16,1.4992514E-18
6321.198,4.4272776E-14,1.6888652E-16,2.535346E-18
6325.409,4.4269225E-14,1.6878851E-16,-1.04066005E-17
6329.6206,4.398563E-14,1.681855E-16,-2.9741622E-18
6333.8315,4.3483405E-14,1.6715122E-16,-4.6387205E-18
6338.0425,4.3580272E-14,1.6717651E-16,-3.3814958E-17
6342.2534,4.338765E-14,1.668383E-16,2.240419E-17
6346.465,4.3290983E-14,1.6651253E-16,-1.7283054E-18
6350.676,4.3416524E-14,1.665982E-16,-2.2541264E-17
6354.8867,4.3115004E-14,1.6602283E-16,1.5228403E-17
6359.0977,4.3058568E-14,1.6579757E-16,3.8030323E-18
6363.309,4.2723705E-14,1.6503001E-16,-2.0733821E-17
6367.52,4.2371895E-14,1.6427746E-16,-1.7863058E-17
6371.731,4.238709E-14,1.6420033E-16,-2.4588953E-17
6375.9424,4.2255953E-14,1.6391792E-16,3.2114566E-18
6380.1533,4.2078594E-14,1.6341062E-16,-3.0080803E-17
6384.3643,4.1749526E-14,1.6270441E-16,-2.9341248E-17
6388.575,4.125444E-14,1.6170496E-16,-9.787357E-18
6392.7866,4.0808628E-14,1.6078884E-16,6.6995707E-18
6396.9976,4.0499556E-14,1.6007272E-16,-9.521303E-18
6401.2085,4.0686255E-14,1.6030893E-16,-2.7419509E-17
6405.4194,4.0118462E-14,1.5909905E-16,-3.4202138E-17
6409.631,4.000473E-14,1.5891008E-16,1.76486E-17
6413.842,3.9831416E-14,1.5837226E-16,-3.0321927E-17
6418.0527,3.977321E-14,1.5823601E-16,-6.236442E-18
6422.264,3.9304978E-14,1.5720844E-16,-1.8643405E-17
6426.475,3.9180556E-14,1.5688305E-16,-1.0149616E-17
6430.686,3.8994598E-14,1.5640747E-16,-2.5218833E-17
6434.897,3.8554758E-14,1.5548343E-16,-6.403596E-18
6439.1084,3.7886744E-14,1.5399742E-16,-2.7443465E-17
6443.3193,3.801221E-14,1.5419344E-16,-9.0623335E-18
6447.5303,3.762482E-14,1.5327175E-16,-2.4275187E-17
6451.741,3.739809E-14,1.5273545E-16,3.372921E-18
6455.9526,3.6950725E-14,1.5171934E-16,1.4181803E-17
6460.1636,3.719098E-14,1.5204979E-16,1.3214161E-17
6464.3745,3.680068E-14,1.5116577E-16,2.5526799E-17
6468.586,3.6680223E-14,1.5080236E-16,1.61304E-17
6472.797,3.6426628E-14,1.5021153E-16,1.9157702E-18
6477.008,3.6322247E-14,1.4989954E-16,-2.4717685E-17
6481.2188,3.6311296E-14,1.4984626E-16,-3.1223964E-17
6485.43,3.5816673E-14,1.4885208E-16,-1.9725482E-17
6489.641,3.5784177E-14,1.4879977E-16,-1.5619508E-18
6493.852,3.515451E-14,1.4740442E-16,-1.9132026E-17
6498.0635,3.503507E-14,1.4704497E-16,-2.2883095E-17
6502.2744,3.4752657E-14,1.4640344E-16,-2.345105E-19
6506.4854,3.4802544E-14,1.464139E-16,-3.91566E-18
6510.6963,3.431756E-14,1.4532973E-16,-1.5409137E-17
6514.9077,3.428829E-14,1.4525568E-16,-1.9483275E-17
6519.1187,3.413564E-14,1.4491934E-16,-1.594537E-17
6523.3296,3.3888582E-14,1.4440232E-16,6.3129494E-19
6527.5405,3.3844143E-14,1.4428118E-16,1.5951993E-17
6531.752,3.3770414E-14,1.4405898E-16,1.7665253E-17
6535.963,3.337133E-14,1.4307551E-16,-4.7600398E-18
6540.174,3.2939343E-14,1.4216707E-16,1.2624457E-17
6544.3853,3.2846298E-14,1.419246E-16,1.2056564E-17
6548.596,3.2959197E-14,1.4207911E-16,-8.968499E-18
6552.807,3.2563135E-14,1.411289E-16,-4.1898637E-17
6557.018,3.231318E-14,1.4061834E-16,-1.283652E-17
6561.2295,3.226411E-14,1.4048284E-16,-1.3887333E-17
6565.4404,3.2175976E-14,1.4021692E-16,-3.0038753E-17
6569.6514,3.197261E-14,1.3982294E-16,9.494855E-19
6573.8623,3.1421185E-14,1.3859967E-16,-1.8110456E-18
6578.0737,3.1415005E-14,1.3852951E-16,-1.2722995E-17
6582.2847,3.155488E-14,1.388219E-16,2.730888E-18
6586.4956,3.105652E-14,1.3764484E-16,-2.491166E-17
6590.707,3.103619E-14,1.3759125E-16,-1.6592768E-17
6594.918,3.0910302E-14,1.3734578E-16,1.5373595E-17
6599.129,3.1303326E-14,1.380678E-16,-2.3298177E-17
6603.34,3.075329E-14,1.3689187E-16,4.4252877E-18
6607.5513,3.0658025E-14,1.3660202E-16,-1.4056039E-17
6611.762,3.0633235E-14,1.3649557E-16,-1.6544737E-17
6615.973,3.0249495E-14,1.3564588E-16,-2.9763596E-18
6620.184,2.9972657E-14,1.3492322E-16,-2.8178265E-17
6624.3955,3.003766E-14,1.3504643E-16,-2.0308588E-17
6628.6064,3.0206777E-14,1.3539847E-16,-3.7904307E-18
6632.8174,2.9787635E-14,1.3442126E-16,-9.058685E-18
6637.029,2.971612E-14,1.3416877E-16,-3.2798495E-17
6641.2397,2.9664222E-14,1.3403494E-16,-2.5206046E-17
6645.4507,2.9472823E-14,1.3359998E-16,-9.6419415E-18
6649.6616,2.9327628E-14,1.3323247E-16,-8.416118E-18
6653.873,2.9470834E-14,1.3350892E-16,-1.03738615E-17
6658.084,2.931319E-14,1.33092E-16,-1.9338075E-17
6662.295,2.908207E-14,1.3255159E-16,-1.22609665E-17
6666.506,2.8775972E-14,1.3187846E-16,1.0480581E-17
6670.7173,2.86928E-14,1.3159226E-16,-1.3324037E-17
6674.928,2.8509418E-14,1.3114135E-16,-1.2954647E-17
6679.139,2.8648325E-14,1.3141928E-16,-4.8510185E-18
6683.3506,2.84319E-14,1.3086855E-16,-1.4008039E-17
6687.5615,2.8401675E-14,1.3073972E-16,-2.4119487E-17
6691.7725,2.8331943E-14,1.3049866E-16,-4.0034284E-17
6695.9834,2.7818512E-14,1.2934814E-16,-1.325468E-17
6700.195,2.7721948E-14,1.2910532E-16,-1.3039256E-17
6704.406,2.7573958E-14,1.2870083E-16,-2.4385536E-17
6708.6167,2.7702404E-14,1.289506E-16,-2.250431E-17
6712.828,2.7214527E-14,1.2779988E-16,-1.960215E-17
6717.039,2.7337016E-14,1.2798825E-16,-3.9882364E-17
6721.25,2.7047976E-14,1.2734481E-16,-1.4156563E-17
6725.461,2.7076665E-14,1.2731019E-16,-4.075905E-17
6729.6724,2.6922417E-14,1.2689252E-16,-4.7602613E-17
6733.8833,2.6770415E-14,1.2652739E-16,-3.755819E-17
6738.094,2.6588005E-14,1.2609365E-16,-2.6829631E-17
6742.305,2.6440931E-14,1.2574499E-16,-1.7239716E-17
6746.5166,2.6702119E-14,1.26306E-16,-1.9481516E-17
6750.7275,2.631626E-14,1.2530084E-16,-4.789023E-17
6754.9385,2.6215983E-14,1.2513138E-16,-6.9613535E-18
6759.15,2.6525613E-14,1.2583856E-16,2.2954628E-18
6763.361,2.6300356E-14,1.2520346E-16,-2.7744003E-17
6767.572,2.637699E-14,1.2530979E-16,-4.1360652E-17
6771.7827,2.6091972E-14,1.2465621E-16,-2.953869E-17
6775.994,2.6132015E-14,1.2473795E-16,-1.705845E-17
6780.205,2.6052045E-14,1.2449268E-16,-2.8367716E-17
6784.416,2.5871293E-14,1.2404923E-16,-2.2123665E-17
6788.627,2.5811152E-14,1.2386855E-16,-2.1496692E-17
6792.8384,2.5853893E-14,1.2393307E-16,-1.905489E-17
6797.0493,2.5934251E-14,1.2409202E-16,-1.4239918E-17
6801.2603,2.560339E-14,1.232167E-16,-3.6492393E-17
6805.4717,2.5506193E-14,1.2299395E-16,-1.7409062E-17
6809.6826,2.5515771E-14,1.2297341E-16,-1.9391397E-17
6813.8936,2.5527442E-14,1.2294842E-16,-2.443144E-17
6818.1045,2.5524349E-14,1.2293769E-16,-1.0434817E-17
6822.316,2.5332624E-14,1.2241478E-16,-2.3522878E-17
6826.527,2.5234348E-14,1.2214066E-16,-2.5989806E-17
6830.738,2.477134E-14,1.210393E-16,-7.884711E-18
6834.9487,2.4899606E-14,1.2124165E-16,-5.5555977E-18
6839.16,2.5171363E-14,1.2158167E-16,-1.2264484E-17
6843.371,2.535828E-14,1.2122221E-16,-2.2604318E-17
6847.582,2.560161E-14,1.2020145E-16,1.4224865E-17
6851.7935,2.5497987E-14,1.1971485E-16,-7.332109E-18
6856.0044,2.4798524E-14,1.14926E-16,-1.03324804E-19
6860.2153,2.3702865E-14,1.0778294E-16,-9.612287E-18
6864.4263,2.4190815E-14,1.08154666E-16,-2.4638589E-17
6868.6377,2.5429664E-14,1.116861E-16,-2.0699727E-17
6872.8486,2.5635296E-14,1.1331591E-16,-4.1451086E-17
6877.0596,2.5193172E-14,1.1334258E-16,9.112691E-19
6881.2705,2.443246E-14,1.1208232E-16,-1.8665701E-17
6885.482,2.4694095E-14,1.1308762E-16,-3.394246E-17
6889.693,2.4743664E-14,1.1389254E-16,-2.8987823E-17
6893.904,2.4743457E-14,1.148212E-16,-2.008332E-17
6898.115,2.454236E-14,1.1529614E-16,-1.9440002E-17
6902.326,2.4207605E-14,1.1540433E-16,-1.1146158E-17
6906.537,2.4183855E-14,1.1599366E-16,-2.8636728E-17
6910.748,2.3980373E-14,1.1611973E-16,-2.1472257E-17
6914.9595,2.400437E-14,1.1667287E-16,-2.7578512E-18
6919.1704,2.4162706E-14,1.1737084E-16,-7.083999E-18
6923.3813,2.3987927E-14,1.1719952E-16,-5.2747955E-18
6927.593,2.3872748E-14,1.1712308E-16,1.247034E-17
6931.8037,2.3804485E-14,1.1706781E-16,8.001747E-18
6936.0146,2.3719572E-14,1.1696235E-16,1.4164588E-17
6940.2256,2.3748151E-14,1.1711063E-16,5.488838E-18
6944.437,2.3908455E-14,1.17546E-16,-1.21368936E-17
6948.648,2.3634611E-14,1.1701878E-16,-4.706175E-18
6952.859,2.3540047E-14,1.1683425E-16,-3.7097264E-17
6957.07,2.3536181E-14,1.168947E-16,-5.594042E-17
6961.2812,2.3369094E-14,1.1666631E-16,-1.7102771E-17
6965.492,2.3361912E-14,1.1667581E-16,-5.673916E-18
6969.703,2.3402541E-14,1.1669124E-16,-1.8694366E-17
6973.9146,2.3632738E-14,1.171316E-16,-2.42043E-17
6978.1255,2.3325996E-14,1.1633231E-16,-1.8491163E-17
6982.3364,2.3094975E-14,1.1572119E-16,-2.0125726E-17
6986.5474,2.3168824E-14,1.1583966E-16,-3.5074172E-17
6990.759,2.326938E-14,1.1617472E-16,-6.6967968E-18
6994.9697,2.3190791E-14,1.1596221E-16,-2.537564E-17
6999.1807,2.302542E-14,1.1556527E-16,-2.5699982E-17
7003.3916,2.3120295E-14,1.1575277E-16,-4.1746753E-17
7007.603,2.3089139E-14,1.1576788E-16,-1.5495785E-17
7011.814,2.301806E-14,1.1560157E-16,-2.3047436E-17
7016.025,2.2813879E-14,1.151714E-16,-1.1940577E-17
7020.2363,2.2920725E-14,1.1549294E-16,-1.29563235E-17
7024.4473,2.3142817E-14,1.1602653E-16,-3.6627415E-17
7028.658,2.2979616E-14,1.1567668E-16,-2.6448427E-17
7032.869,2.3055048E-14,1.1591033E-16,-2.241905E-17
7037.0806,2.3106637E-14,1.1599518E-16,-4.4626235E-17
7041.2915,2.265771E-14,1.1493438E-16,-2.8259458E-17
7045.5024,2.278958E-14,1.1524503E-16,-5.1185655E-17
7049.7134,2.282166E-14,1.154358E-16,-2.1877465E-17
7053.925,2.284546E-14,1.1554239E-16,-2.210764E-17
7058.1357,2.2838946E-14,1.1553413E-16,-3.481679E-17
7062.3467,2.2827904E-14,1.1558547E-16,-1.9169398E-17
7066.558,2.2813984E-14,1.1554406E-16,-3.7979174E-17
7070.769,2.2586527E-14,1.1500095E-16,-4.1295397E-17
7074.98,2.250692E-14,1.1488056E-16,-2.5683252E-17
7079.191,2.2513455E-14,1.1494536E-16,-1.8611253E-17
7083.4023,2.2531864E-14,1.1508017E-16,5.405037E-19
7087.6133,2.259855E-14,1.151925E-16,-2.7073693E-17
7091.824,2.2478076E-14,1.1493562E-16,-2.3638924E-17
7096.035,2.2663197E-14,1.1535146E-16,-4.9181516E-17
7100.2466,2.2299553E-14,1.1451424E-16,-3.617766E-17
7104.4575,2.2207676E-14,1.1437826E-16,-1.3148463E-17
7108.6685,2.2273341E-14,1.1453456E-16,-3.292426E-17
7112.88,2.2455299E-14,1.1497449E-16,-4.427161E-17
7117.091,2.2572156E-14,1.1537344E-16,-1.5846853E-17
7121.302,2.2508229E-14,1.1522103E-16,-1.7257944E-17
7125.5127,2.2259089E-14,1.1458499E-16,-2.4709389E-17
7129.724,2.2246856E-14,1.145379E-16,-3.374713E-17
7133.935,2.201616E-14,1.1399822E-16,-2.1686303E-17
7138.146,2.2061912E-14,1.1402852E-16,-4.4225526E-17
7142.3574,2.22533E-14,1.1444547E-16,-4.8244707E-17
7146.5684,2.2108707E-14,1.1399868E-16,-3.1922283E-17
7150.7793,2.2154953E-14,1.1384728E-16,-3.7654075E-17
7154.99,2.2026189E-14,1.1314358E-16,-3.2854446E-17
7159.2017,2.187039E-14,1.1231746E-16,-2.6097896E-17
7163.4126,2.185469E-14,1.1177358E-16,-4.048134E-17
7167.6235,2.1627079E-14,1.1076412E-16,-4.861172E-17
7171.8345,2.1696446E-14,1.10577736E-16,-5.007264E-17
7176.046,2.194124E-14,1.1100142E-16,-3.3748324E-17
7180.257,2.1870558E-14,1.10736594E-16,-3.6686367E-17
7184.468,2.1547119E-14,1.099783E-16,-4.785805E-17
7188.679,2.1498682E-14,1.101097E-16,-4.3586082E-17
7192.89,2.1533302E-14,1.1063982E-16,-2.8324378E-17
7197.101,2.1473739E-14,1.110365E-16,-2.4989077E-17
7201.312,2.1539338E-14,1.1172932E-16,-3.2769624E-17
7205.5234,2.1738077E-14,1.1260281E-16,-5.175774E-17
7209.7344,2.154467E-14,1.1229363E-16,-4.79767E-17
7213.9453,2.1380523E-14,1.1182758E-16,-2.7210072E-17
7218.1562,2.1261676E-14,1.1117195E-16,-4.765369E-17
7222.3677,2.1057098E-14,1.1032058E-16,-3.328297E-17
7226.5786,2.1342825E-14,1.1083246E-16,-8.306408E-18
7230.7896,2.130656E-14,1.1074942E-16,3.093719E-17
7235.001,2.1376052E-14,1.1093095E-16,1.4542662E-17
7239.212,2.1027712E-14,1.10114104E-16,-6.1435564E-18
7243.423,2.0962227E-14,1.1004415E-16,-2.0237225E-17
7247.634,2.0767328E-14,1.0971689E-16,-3.692954E-18
7251.845,2.0820915E-14,1.0981605E-16,-4.2129685E-17
7256.056,2.098805E-14,1.1028583E-16,-3.488869E-17
7260.267,2.0801525E-14,1.098408E-16,-1.4037705E-17
7264.478,2.074617E-14,1.0979215E-16,5.418404E-18
7268.6895,2.0687746E-14,1.09705107E-16,-2.150475E-18
7272.9004,2.021267E-14,1.08694166E-16,3.1985258E-17
7277.1113,2.016256E-14,1.08578606E-16,-2.2088504E-18
7281.3228,1.9935618E-14,1.079806E-16,-3.030325E-17
7285.5337,1.9820396E-14,1.07724525E-16,-3.994025E-17
7289.7446,1.9788573E-14,1.0774805E-16,-2.6027625E-17
7293.9556,2.003346E-14,1.0842321E-16,-3.0579534E-17
7298.167,1.9772576E-14,1.0793224E-16,-2.58522E-18
7302.378,1.9501412E-14,1.07384124E-16,1.0318755E-17
7306.589,1.9439997E-14,1.0735445E-16,-1.9997296E-18
7310.8,1.9125243E-14,1.06715504E-16,-1.2321227E-18
7315.011,1.9173312E-14,1.0700717E-16,-5.845956E-18
7319.222,1.9227463E-14,1.0720874E-16,-3.385267E-17
7323.433,1.9486745E-14,1.08049726E-16,-1.5701147E-17
7327.6445,1.9108467E-14,1.0717699E-16,1.2817367E-18
7331.8555,1.9112238E-14,1.0722785E-16,-6.907603E-19
7336.0664,1.879386E-14,1.0645517E-16,2.6562301E-17
7340.2773,1.8524382E-14,1.05661557E-16,4.5786684E-18
7344.489,1.8487153E-14,1.0545227E-16,-2.6357587E-17
7348.6997,1.8466702E-14,1.05435855E-16,-1.9083894E-17
7352.9106,1.8752847E-14,1.06209316E-16,-2.5137074E-17
7357.122,1.8642824E-14,1.06009654E-16,3.7362185E-18
7361.333,1.8629151E-14,1.05968977E-16,-1.7967349E-17
7365.544,1.8425201E-14,1.0547316E-16,-5.6536575E-18
7369.755,1.8427915E-14,1.0545974E-16,-2.7373999E-17
7373.9663,1.8007971E-14,1.04305596E-16,-3.370503E-17
7378.1772,1.8080672E-14,1.04539304E-16,-2.599599E-17
7382.388,1.831273E-14,1.0519822E-16,-3.2879867E-17
7386.599,1.8212604E-14,1.0505819E-16,3.900836E-18
7390.8105,1.818283E-14,1.0498525E-16,-4.491966E-19
7395.0215,1.8113767E-14,1.04719577E-16,-3.776387E-17
7399.2324,1.7547285E-14,1.0331199E-16,1.9290687E-17
7403.444,1.7974E-14,1.04359495E-16,-3.5250117E-17
7407.655,1.7821702E-14,1.04045596E-16,2.2246508E-19
7411.8657,1.7868995E-14,1.0407383E-16,-4.2518222E-17
7416.0767,1.7774393E-14,1.03876E-16,-2.4857664E-17
7420.288,1.769419E-14,1.03705863E-16,-6.22548E-18
7424.499,1.7298405E-14,1.02622594E-16,7.1684676E-19
7428.71,1.713375E-14,1.02063394E-16,-3.2989597E-17
7432.921,1.733514E-14,1.0265907E-16,-3.1935862E-17
7437.1323,1.7166232E-14,1.0211273E-16,-5.2391112E-17
7441.3433,1.715893E-14,1.0212601E-16,-4.134251E-17
7445.554,1.7122202E-14,1.0203076E-16,-4.603118E-17
7449.7656,1.683851E-14,1.0126013E-16,-2.996421E-17
7453.9766,1.6530041E-14,1.0032073E-16,-4.3764095E-17
7458.1875,1.6251984E-14,9.959949E-17,-2.1567705E-17
7462.3984,1.6353089E-14,9.999375E-17,3.1303627E-18
7466.61,1.6238367E-14,9.958044E-17,-2.2161214E-17
7470.821,1.6202356E-14,9.949748E-17,-1.938538E-17
7475.0317,1.6436071E-14,1.0020296E-16,-1.6770501E-17
7479.2427,1.6160138E-14,9.9389575E-17,-1.6217963E-17
7483.454,1.5913337E-14,9.871343E-17,-3.086896E-18
7487.665,1.6124497E-14,9.9244653E-17,-3.2965113E-17
7491.876,1.6393593E-14,1.0001705E-16,-4.1067377E-17
7496.0874,1.651978E-14,1.00445706E-16,-2.734802E-17
7500.2983,1.6459514E-14,1.002897E-16,-2.1674657E-17
7504.5093,1.6561788E-14,1.0052385E-16,-4.5034704E-17
7508.72,1.631447E-14,9.991974E-17,-2.2649181E-20
7512.9316,1.6241576E-14,9.9440814E-17,4.97672E-18
7517.1426,1.6296824E-14,9.962299E-17,2.9977623E-18
7521.3535,1.6369127E-14,9.977301E-17,-2.0139495E-17
7525.5645,1.6171943E-14,9.9221254E-17,-1.8702095E-17
7529.776,1.6649852E-14,1.00566495E-16,-3.8170527E-17
7533.987,1.6503656E-14,1.00228535E-16,-1.8362903E-17
7538.1978,1.6296888E-14,9.9510695E-17,-5.726358E-17
7542.409,1.6478226E-14,1.0010136E-16,-4.488312E-17
7546.62,1.631118E-14,9.9721215E-17,-1.5038956E-17
7550.831,1.6011311E-14,9.8739914E-17,-5.445147E-17
7555.042,1.6323424E-14,9.9770674E-17,-2.80254E-17
7559.2534,1.6248394E-14,9.9543934E-17,-2.4063885E-17
7563.4644,1.6632557E-14,1.0064788E-16,2.6841965E-18
7567.6753,1.649768E-14,9.972477E-17,-1.4658578E-17
7571.8867,1.7129468E-14,1.0004613E-16,-2.0373447E-17
7576.0977,1.7719596E-14,9.826282E-17,-6.743702E-19
7580.3086,1.8344758E-14,9.8308636E-17,-2.2948166E-17
7584.5195,1.9908822E-14,1.1396904E-16,-3.0390844E-17
7588.731,1.8079388E-14,7.595672E-17,-1.8305748E-17
7592.942,1.7401552E-14,6.390576E-17,-2.360043E-17
7597.153,1.8904413E-14,7.328372E-17,-5.4031312E-17
7601.364,2.4384833E-14,1.1306786E-16,-5.7802574E-17
7605.575,2.2373828E-14,8.2482943E-17,-5.410847E-17
7609.786,2.2134562E-14,8.2363465E-17,-4.604176E-17
7613.997,2.0362176E-14,8.06968E-17,-7.187891E-17
7618.2085,1.853972E-14,7.711735E-17,-4.046582E-17
7622.4194,1.8083655E-14,7.6154886E-17,-4.435901E-17
7626.6304,1.8084418E-14,7.7504355E-17,-3.637018E-17
7630.8413,1.8331031E-14,8.0763295E-17,-3.362295E-17
