3400.8	21.932
3401.9	23.631
3402.9	20.395
3404.0	17.663
3405.0	16.713
3406.1	16.03
3407.2	20.527
3408.2	17.304
3409.3	9.3909
3410.3	8.3948
3411.4	14.88
3412.4	15.55
3413.5	16.481
3414.5	19.272
3415.6	5.1948
3416.7	13.598
3417.7	19.624
3418.8	16.857
3419.8	30.742
3420.9	22.266
3421.9	16.898
3423.0	13.453
3424.1	6.4775
3425.1	14.199
3426.2	28.477
3427.2	24.726
3428.3	22.47
3429.3	10.676
3430.4	15.15
3431.5	11.3
3432.5	23.504
3433.6	30.149
3434.6	24.876
3435.7	8.9022
3436.7	31.588
3437.8	28.092
3438.9	23.651
3439.9	22.088
3441.0	32.712
3442.0	25.513
3443.1	11.091
3444.1	10.313
3445.2	13.951
3446.3	14.97
3447.3	23.167
3448.4	30.792
3449.4	23.844
3450.5	12.808
3451.6	13.743
3452.6	26.016
3453.7	36.164
3454.7	22.576
3455.8	24.498
3456.9	19.311
3457.9	4.7947
3459.0	4.1764
3460.0	26.793
3461.1	27.209
3462.2	35.846
3463.2	18.847
3464.3	15.672
3465.3	24.634
3466.4	31.653
3467.5	18.421
3468.5	16.734
3469.6	24.444
3470.6	8.9106
3471.7	5.939
3472.8	28.375
3473.8	22.122
3474.9	14.205
3475.9	23.954
3477.0	15.815
3478.1	37.757
3479.1	12.97
3480.2	7.1773
3481.2	17.337
3482.3	23.005
3483.4	19.612
3484.4	20.193
3485.5	24.878
3486.5	18.041
3487.6	25.546
3488.7	9.0294
3489.7	33.826
3490.8	23.263
3491.9	23.395
3492.9	25.845
3494.0	21.255
3495.0	41.303
3496.1	34.104
3497.2	23.603
3498.2	13.87
3499.3	41.065
3500.4	20.178
3501.4	30.12
3502.5	13.503
3503.5	8.1712
3504.6	16.802
3505.7	11.711
3506.7	23.818
3507.8	22.728
3508.9	34.067
3509.9	23.135
3511.0	1.6964
3512.1	29.126
3513.1	25.54
3514.2	23.941
3515.2	11.56
3516.3	18.61
3517.4	29.7
3518.4	27.877
3519.5	33.598
3520.6	25.678
3521.6	34.067
3522.7	22.612
3523.8	18.588
3524.8	13.715
3525.9	27.794
3526.9	27.985
3528.0	18.306
3529.1	23.493
3530.1	19.517
3531.2	12.21
3532.3	29.687
3533.3	20.631
3534.4	30.463
3535.5	18.815
3536.5	25.034
3537.6	23.048
3538.7	24.346
3539.7	26.991
3540.8	30.343
3541.9	26.8
3542.9	33.135
3544.0	23.598
3545.1	22.894
3546.1	17.454
3547.2	18.598
3548.3	35.339
3549.3	24.222
3550.4	21.637
3551.5	18.978
3552.5	22.843
3553.6	29.471
3554.7	25.484
3555.7	28.94
3556.8	24.703
3557.9	33.702
3558.9	31.308
3560.0	23.36
3561.1	26.044
3562.1	22.303
3563.2	29.078
3564.3	28.523
3565.3	26.224
3566.4	22.718
3567.5	28.564
3568.5	27.875
3569.6	19.286
3570.7	21.703
3571.7	22.705
3572.8	23.936
3573.9	26.215
3574.9	26.288
3576.0	26.485
3577.1	27.263
3578.1	23.769
3579.2	15.478
3580.3	17.334
3581.3	26.157
3582.4	28.19
3583.5	22.498
3584.5	26.705
3585.6	23.283
3586.7	20.558
3587.7	25.47
3588.8	35.405
3589.9	30.684
3590.9	26.508
3592.0	23.205
3593.1	31.083
3594.2	31.388
3595.2	24.47
3596.3	24.908
3597.4	24.436
3598.4	25.239
3599.5	27.643
3600.6	31.398
3601.6	29.412
3602.7	24.862
3603.8	26.538
3604.8	23.462
3605.9	23.187
3607.0	21.92
3608.1	26.04
3609.1	20.287
3610.2	19.515
3611.3	27.459
3612.3	30.237
3613.4	18.926
3614.5	21.86
3615.5	30.005
3616.6	32.151
3617.7	31.418
3618.8	28.259
3619.8	23.399
3620.9	24.739
3622.0	26.618
3623.0	30.606
3624.1	23.872
3625.2	21.689
3626.2	23.478
3627.3	20.726
3628.4	17.529
3629.5	17.756
3630.5	19.132
3631.6	21.369
3632.7	15.691
3633.7	16.688
3634.8	22.973
3635.9	21.84
3637.0	16.453
3638.0	22.724
3639.1	28.066
3640.2	24.617
3641.2	20.447
3642.3	18.077
3643.4	23.951
3644.5	25.75
3645.5	22.84
3646.6	26.089
3647.7	23.758
3648.7	19.039
3649.8	21.952
3650.9	27.819
3652.0	25.258
3653.0	21.71
3654.1	23.403
3655.2	25.156
3656.2	26.968
3657.3	26.259
3658.4	29.118
3659.5	33.133
3660.5	26.021
3661.6	22.074
3662.7	27.125
3663.8	24.575
3664.8	18.922
3665.9	23.035
3667.0	24.732
3668.0	18.142
3669.1	18.396
3670.2	25.337
3671.3	25.856
3672.3	23.728
3673.4	22.46
3674.5	24.788
3675.6	25.509
3676.6	22.417
3677.7	23.412
3678.8	25.06
3679.9	26.685
3680.9	25.382
3682.0	24.929
3683.1	22.564
3684.1	23.512
3685.2	24.877
3686.3	24.448
3687.4	25.007
3688.4	23.764
3689.5	23.708
3690.6	23.368
3691.7	25.005
3692.7	24.345
3693.8	26.17
3694.9	32.121
3696.0	31.989
3697.0	28.267
3698.1	21.264
3699.2	20.229
3700.3	25.796
3701.3	28.694
3702.4	28.605
3703.5	20.945
3704.6	18.408
3705.6	22.281
3706.7	22.164
3707.8	19.416
3708.9	18.825
3709.9	22.171
3711.0	29.145
3712.1	27.688
3713.2	23.935
3714.2	21.88
3715.3	23.426
3716.4	27.619
3717.5	23.068
3718.5	21.187
3719.6	20.462
3720.7	18.221
3721.8	21.668
3722.8	25.721
3723.9	24.823
3725.0	23.932
3726.1	20.64
3727.1	18.74
3728.2	21.717
3729.3	24.412
3730.4	22.888
3731.4	23.741
3732.5	24.055
3733.6	22.054
3734.7	23.297
3735.7	21.898
3736.8	20.627
3737.9	21.227
3739.0	21.463
3740.1	23.586
3741.1	25.841
3742.2	25.157
3743.3	24.957
3744.4	22.127
3745.4	20.003
3746.5	21.046
3747.6	21.199
3748.7	19.976
3749.7	21.089
3750.8	20.142
3751.9	19.466
3753.0	21.757
3754.0	21.215
3755.1	16.815
3756.2	17.81
3757.3	22.255
3758.4	20.34
3759.4	21.937
3760.5	24.459
3761.6	21.621
3762.7	19.412
3763.7	20.101
3764.8	20.834
3765.9	22.526
3767.0	22.04
3768.0	17.469
3769.1	17.248
3770.2	21.91
3771.3	23.787
3772.4	22.026
3773.4	19.706
3774.5	19.909
3775.6	20.099
3776.7	20.36
3777.7	21.264
3778.8	19.134
3779.9	18.793
3781.0	20.829
3782.1	20.592
3783.1	19.198
3784.2	18.97
3785.3	20.941
3786.4	20.285
3787.4	20.071
3788.5	21.263
3789.6	20.225
3790.7	22.408
3791.8	22.591
3792.8	20.114
3793.9	20.783
3795.0	20.999
3796.1	19.695
3797.2	20.707
3798.2	22.072
3799.3	20.934
3800.4	21.15
3801.5	23.049
3802.5	23.707
3803.6	20.375
3804.7	19.078
3805.8	20.627
3806.9	20.301
3807.9	21.343
3809.0	22.205
3810.1	22.17
3811.2	19.714
3812.3	20.047
3813.3	20.128
3814.4	17.673
3815.5	19.666
3816.6	20.608
3817.7	19.237
3818.7	18.638
3819.8	20.188
3820.9	19.847
3822.0	18.419
3823.1	16.736
3824.1	17.441
3825.2	21.372
3826.3	21.15
3827.4	19.448
3828.4	18.035
3829.5	18.955
3830.6	19.822
3831.7	18.268
3832.8	17.503
3833.8	18.99
3834.9	19.622
3836.0	18.021
3837.1	17.051
3838.2	16.88
3839.2	15.202
3840.3	14.083
3841.4	14.1
3842.5	15.679
3843.6	18.459
3844.6	17.116
3845.7	15.635
3846.8	16.007
3847.9	15.984
3849.0	14.393
3850.1	14.664
3851.1	14.92
3852.2	14.053
3853.3	14.535
3854.4	15.093
3855.5	14.1
3856.5	10.486
3857.6	12.141
3858.7	13.731
3859.8	11.391
3860.9	10.965
3861.9	11.513
3863.0	12.669
3864.1	15.219
3865.2	12.554
3866.3	10.547
3867.3	12.544
3868.4	12.286
3869.5	12.207
3870.6	9.6577
3871.7	10.95
3872.7	12.978
3873.8	12.173
3874.9	13.672
3876.0	12.289
3877.1	12.373
3878.2	13.022
3879.2	10.009
3880.3	10.862
3881.4	14.188
3882.5	12.468
3883.6	12.094
3884.6	14.444
3885.7	14.882
3886.8	11.125
3887.9	9.6578
3889.0	9.9072
3890.0	9.3569
3891.1	13.22
3892.2	13.463
3893.3	12.561
3894.4	14.365
3895.5	16.663
3896.5	17.045
3897.6	12.558
3898.7	14.395
3899.8	12.977
3900.9	13.764
3901.9	15.305
3903.0	15.04
3904.1	15.269
3905.2	13.749
3906.3	11.001
3907.4	13.2
3908.4	14.135
3909.5	14.865
3910.6	16.112
3911.7	15.777
3912.8	14.987
3913.8	15.656
3914.9	16.066
3916.0	16.744
3917.1	17.823
3918.2	16.119
3919.3	15.366
3920.3	17.223
3921.4	16.71
3922.5	17.878
3923.6	19.105
3924.7	17.846
3925.8	16.562
3926.8	17.006
3927.9	18.413
3929.0	17.035
3930.1	17.946
3931.2	17.214
3932.3	14.76
3933.3	12.622
3934.4	13.782
3935.5	13.693
3936.6	13.251
3937.7	13.394
3938.7	14.783
3939.8	14.544
3940.9	14.428
3942.0	15.998
3943.1	16.354
3944.2	13.949
3945.2	13.192
3946.3	15.534
3947.4	14.504
3948.5	14.042
3949.6	12.774
3950.7	16.354
3951.7	15.382
3952.8	14.486
3953.9	17.521
3955.0	16.495
3956.1	16.469
3957.2	16.374
3958.2	16.325
3959.3	16.87
3960.4	14.412
3961.5	13.808
3962.6	13.986
3963.7	14.18
3964.7	14.305
3965.8	12.555
3966.9	12.135
3968.0	14.08
3969.1	13.28
3970.2	14.845
3971.2	16.087
3972.3	13.884
3973.4	15.443
3974.5	12.886
3975.6	12.113
3976.7	14.932
3977.7	12.595
3978.8	12.35
3979.9	16.448
3981.0	17.422
3982.1	16.085
3983.2	17.238
3984.3	16.816
3985.3	13.022
3986.4	13.361
3987.5	13.287
3988.6	14.545
3989.7	15.038
3990.8	16.265
3991.8	15.343
3992.9	14.5
3994.0	13.162
3995.1	16.147
3996.2	17.439
3997.3	15.665
3998.3	16.96
3999.4	16.086
4000.5	17.388
4001.6	15.505
4002.7	16.804
4003.8	17.411
4004.9	16.344
4005.9	17.509
4007.0	17.448
4008.1	21.398
4009.2	22.339
4010.3	21.153
4011.4	23.783
4012.4	19.486
4013.5	17.723
4014.6	15.673
4015.7	17.746
4016.8	20.119
4017.9	20.281
4018.9	20.998
4020.0	22.125
4021.1	25.569
4022.2	22.852
4023.3	23.291
4024.4	23.95
4025.5	23.492
4026.5	22.983
4027.6	21.6
4028.7	20.936
4029.8	21.877
4030.9	25.08
4032.0	25.424
4033.1	24.032
4034.1	24.109
4035.2	22.357
4036.3	22.186
4037.4	21.939
4038.5	25.525
4039.6	24.375
4040.6	25.671
4041.7	26.725
4042.8	24.338
4043.9	29.74
4045.0	29.488
4046.1	26.75
4047.2	29.556
4048.2	28.259
4049.3	31.003
4050.4	27.4
4051.5	25.274
4052.6	25.382
4053.7	26.534
4054.8	27.803
4055.8	26.959
4056.9	27.716
4058.0	30.025
4059.1	29.303
4060.2	26.24
4061.3	28.036
4062.3	28.501
4063.4	24.888
4064.5	24.743
4065.6	28.623
4066.7	29.389
4067.8	26.546
4068.9	28.767
4069.9	30.754
4071.0	27.674
4072.1	29.599
4073.2	32.417
4074.3	30.061
4075.4	34.639
4076.5	34.776
4077.5	29.303
4078.6	27.995
4079.7	26.218
4080.8	29.75
4081.9	33.504
4083.0	33.751
4084.1	32.078
4085.1	30.931
4086.2	32.45
4087.3	30.155
4088.4	29.488
4089.5	29.6
4090.6	27.669
4091.7	27.458
4092.7	27.409
4093.8	29.675
4094.9	27.49
4096.0	31.784
4097.1	29.811
4098.2	32.85
4099.3	29.393
4100.3	28.993
4101.4	30.716
4102.5	32.26
4103.6	30.817
4104.7	29.181
4105.8	29.925
4106.9	29.184
4107.9	31.432
4109.0	30.534
4110.1	31.041
4111.2	30.643
4112.3	25.418
4113.4	27.535
4114.5	27.961
4115.5	29.374
4116.6	31.395
4117.7	30.912
4118.8	30.639
4119.9	34.072
4121.0	27.588
4122.1	27.717
4123.2	33.574
4124.2	31.098
4125.3	31.707
4126.4	29.406
4127.5	26.732
4128.6	29.7
4129.7	27.415
4130.8	28.975
4131.8	30.518
4132.9	28.328
4134.0	28.088
4135.1	27.051
4136.2	27.879
4137.3	29.651
4138.4	27.409
4139.4	24.211
4140.5	26.441
4141.6	26.941
4142.7	29.064
4143.8	26.963
4144.9	26.294
4146.0	23.992
4147.1	24.999
4148.1	21.795
4149.2	22.432
4150.3	20.979
4151.4	20.944
4152.5	22.945
4153.6	24.017
4154.7	24.872
4155.7	26.742
4156.8	27.577
4157.9	23.146
4159.0	22.734
4160.1	25.676
4161.2	24.756
4162.3	25.473
4163.3	25.392
4164.4	24.212
4165.5	26.46
4166.6	30.294
4167.7	37.263
4168.8	37.571
4169.9	29.642
4171.0	23.247
4172.0	24.029
4173.1	23.142
4174.2	23.389
4175.3	24.925
4176.4	27.927
4177.5	24.416
4178.6	24.106
4179.7	24.804
4180.7	23.492
4181.8	23.74
4182.9	24.492
4184.0	26.124
4185.1	25.028
4186.2	28.871
4187.3	28.376
4188.3	21.471
4189.4	24.434
4190.5	24.926
4191.6	28.623
4192.7	24.075
4193.8	26.704
4194.9	27.108
4196.0	24.419
4197.0	25.494
4198.1	27.79
4199.2	24.91
4200.3	25.195
4201.4	22.401
4202.5	24.983
4203.6	24.064
4204.6	24.57
4205.7	26.939
4206.8	28.138
4207.9	24.326
4209.0	26.821
4210.1	26.42
4211.2	27.297
4212.3	27.899
4213.3	21.012
4214.4	23.398
4215.5	25.421
4216.6	28.53
4217.7	26.739
4218.8	26.965
4219.9	28.846
4221.0	25.982
4222.0	26.402
4223.1	23.547
4224.2	26.057
4225.3	23.205
4226.4	25.448
4227.5	25.568
4228.6	24.943
4229.7	24.48
4230.7	28.292
4231.8	27.702
4232.9	27.142
4234.0	26.843
4235.1	26.944
4236.2	28.483
4237.3	26.303
4238.3	28.121
4239.4	27.522
4240.5	28.567
4241.6	27.245
4242.7	26.403
4243.8	29.69
4244.9	26.689
4246.0	25.024
4247.0	28.822
4248.1	29.411
4249.2	28.482
4250.3	26.256
4251.4	27.587
4252.5	27.761
4253.6	28.174
4254.7	26.392
4255.7	28.354
4256.8	30.188
4257.9	32.097
4259.0	28.775
4260.1	30.553
4261.2	29.399
4262.3	32.393
4263.4	33.636
4264.4	29.419
4265.5	35.039
4266.6	33.636
4267.7	32.459
4268.8	30.735
4269.9	26.503
4271.0	28.646
4272.1	27.364
4273.1	30.005
4274.2	31.008
4275.3	26.46
4276.4	28.64
4277.5	29.746
4278.6	28.988
4279.7	30.937
4280.8	29.913
4281.8	28.702
4282.9	28.561
4284.0	27.305
4285.1	26.137
4286.2	27.148
4287.3	27.62
4288.4	30.714
4289.5	29.541
4290.5	30.701
4291.6	28.274
4292.7	29.87
4293.8	27.072
4294.9	24.594
4296.0	24.719
4297.1	28.311
4298.2	27.052
4299.2	27.618
4300.3	27.461
4301.4	26.912
4302.5	28.564
4303.6	28.705
4304.7	26.317
4305.8	27.601
4306.9	25.16
4307.9	25.3
4309.0	26.468
4310.1	28.545
4311.2	29.292
4312.3	28.49
4313.4	29.071
4314.5	27.847
4315.6	26.587
4316.6	25.206
4317.7	25.641
4318.8	26.244
4319.9	23.813
4321.0	24.682
4322.1	26.821
4323.2	28.968
4324.3	23.498
4325.3	26.046
4326.4	27.495
4327.5	28.174
4328.6	25.82
4329.7	23.162
4330.8	23.752
4331.9	27.262
4333.0	27.796
4334.0	26.177
4335.1	25.702
4336.2	26.705
4337.3	26.661
4338.4	26.716
4339.5	25.477
4340.6	27.426
4341.7	25.987
4342.7	25.973
4343.8	27.87
4344.9	29.407
4346.0	30.106
4347.1	30.781
4348.2	29.415
4349.3	24.737
4350.4	27.852
4351.4	26.531
4352.5	27.118
4353.6	25.453
4354.7	24.675
4355.8	30.025
4356.9	25.545
4358.0	25.076
4359.1	25.843
4360.1	22.763
4361.2	22.933
4362.3	27.639
4363.4	25.303
4364.5	27.665
4365.6	32.061
4366.7	26.529
4367.8	26.862
4368.8	27.475
4369.9	27.557
4371.0	26.528
4372.1	27.005
4373.2	28.337
4374.3	26.732
4375.4	24.513
4376.5	22.675
4377.6	24.283
4378.6	21.498
4379.7	25.445
4380.8	27.449
4381.9	28.039
4383.0	25.966
4384.1	25.323
4385.2	23.94
4386.3	26.659
4387.3	24.143
4388.4	23.917
4389.5	25.36
4390.6	21.985
4391.7	24.37
4392.8	25.189
4393.9	21.04
4395.0	21.184
4396.0	25.19
4397.1	25.848
4398.2	24.045
4399.3	22.632
4400.4	23.411
4401.5	22.046
4402.6	23.517
4403.7	21.094
4404.7	21.903
4405.8	21.523
4406.9	23.5
4408.0	25.58
4409.1	22.579
4410.2	20.485
4411.3	23.968
4412.4	18.519
4413.4	21.033
4414.5	24.824
4415.6	25.621
4416.7	22.899
4417.8	21.508
4418.9	22.554
4420.0	22.085
4421.1	20.696
4422.1	23.193
4423.2	24.443
4424.3	23.719
4425.4	18.801
4426.5	21.046
4427.6	23.014
4428.7	20.834
4429.8	21.927
4430.8	22.483
4431.9	20.728
4433.0	22.504
4434.1	21.094
4435.2	21.663
4436.3	24.967
4437.4	22.956
4438.5	21.595
4439.6	21.664
4440.6	23.135
4441.7	22.731
4442.8	24.423
4443.9	23.559
4445.0	24.068
4446.1	22.566
4447.2	23.243
4448.3	19.67
4449.3	21.026
4450.4	23.401
4451.5	23.288
4452.6	24.815
4453.7	21.827
4454.8	21.889
4455.9	22.267
4457.0	19.036
4458.0	21.438
4459.1	22.29
4460.2	23.577
4461.3	21.632
4462.4	21.418
4463.5	23.584
4464.6	20.157
4465.7	21.006
4466.7	23.115
4467.8	21.448
4468.9	21.256
4470.0	19.345
4471.1	18.882
4472.2	20.297
4473.3	19.073
4474.4	20.008
4475.4	20.637
4476.5	20.386
4477.6	19.986
4478.7	19.708
4479.8	19.766
4480.9	19.231
4482.0	20.467
4483.1	18.483
4484.1	17.153
4485.2	18.138
4486.3	20.736
4487.4	21.96
4488.5	19.054
4489.6	18.686
4490.7	17.516
4491.8	16.271
4492.8	16.367
4493.9	17.104
4495.0	17.742
4496.1	18.08
4497.2	18.013
4498.3	18.094
4499.4	16.577
4500.5	20.124
4501.6	18.512
4502.6	16.634
4503.7	17.11
4504.8	18.562
4505.9	20.477
4507.0	20.301
4508.1	18.677
4509.2	19.178
4510.3	18.162
4511.3	16.165
4512.4	17.949
4513.5	18.022
4514.6	18.975
4515.7	18.023
4516.8	16.283
4517.9	17.31
4519.0	18.556
4520.0	18.9
4521.1	18.252
4522.2	16.535
4523.3	20.326
4524.4	18.826
4525.5	18.408
4526.6	19.576
4527.7	21.716
4528.7	21.155
4529.8	17.654
4530.9	17.556
4532.0	17.512
4533.1	18.613
4534.2	19.308
4535.3	19.016
4536.4	20.319
4537.4	19.456
4538.5	18.378
4539.6	18.725
4540.7	19.903
4541.8	21.242
4542.9	21.708
4544.0	22.479
4545.1	20.676
4546.1	20.315
4547.2	19.179
4548.3	19.64
4549.4	20.279
4550.5	20.938
4551.6	21.096
4552.7	19.508
4553.8	19.801
4554.8	21.865
4555.9	20.095
4557.0	19.639
4558.1	21.021
4559.2	21.724
4560.3	19.453
4561.4	20.677
4562.5	22.096
4563.5	21.377
4564.6	17.678
4565.7	16.505
4566.8	22.442
4567.9	23.718
4569.0	21.517
4570.1	21.543
4571.2	20.801
4572.2	20.775
4573.3	19.324
4574.4	19.29
4575.5	19.474
4576.6	19.215
4577.7	19.714
4578.8	20.755
4579.9	22.893
4580.9	20.639
4582.0	19.587
4583.1	18.934
4584.2	17.458
4585.3	17.9
4586.4	19.971
4587.5	20.295
4588.6	19.309
4589.6	20.963
4590.7	18.294
4591.8	17.953
4592.9	20.514
4594.0	20.066
4595.1	21.595
4596.2	21.624
4597.3	21.053
4598.3	20.604
4599.4	21.133
4600.5	20.136
4601.6	19.118
4602.7	18.788
4603.8	18.339
4604.9	19.773
4606.0	20.316
4607.0	19.368
4608.1	18.346
4609.2	19.062
4610.3	20.598
4611.4	20.507
4612.5	19.489
4613.6	20.157
4614.7	19.465
4615.7	19.082
4616.8	19.329
4617.9	19.991
4619.0	20.063
4620.1	19.736
4621.2	20.059
4622.3	17.569
4623.4	18.2
4624.4	20.244
4625.5	19.269
4626.6	17.932
4627.7	19.776
4628.8	19.994
4629.9	18.588
4631.0	19.47
4632.1	20.335
4633.1	20.851
4634.2	21.543
4635.3	23.564
4636.4	21.891
4637.5	21.215
4638.6	21.399
4639.7	20.285
4640.8	21.181
4641.8	21.934
4642.9	22.317
4644.0	20.89
4645.1	20.314
4646.2	19.903
4647.3	19.646
4648.4	21.444
4649.5	23.913
4650.5	22.571
4651.6	21.251
4652.7	22.036
4653.8	21.483
4654.9	22.635
4656.0	21.915
4657.1	21.316
4658.2	22.546
4659.2	23.4
4660.3	22.347
4661.4	21.327
4662.5	21.117
4663.6	21.493
4664.7	21.009
4665.8	22.404
4666.9	22.753
4667.9	23.119
4669.0	24.559
4670.1	25.718
4671.2	24.259
4672.3	21.49
4673.4	22.875
4674.5	23.477
4675.6	22.357
4676.6	22.25
4677.7	23.812
4678.8	25.231
4679.9	24.657
4681.0	23.918
4682.1	22.8
4683.2	21.651
4684.3	23.113
4685.3	23.932
4686.4	22.951
4687.5	22.875
4688.6	24.383
4689.7	23.383
4690.8	23.122
4691.9	22.578
4693.0	22.636
4694.0	21.33
4695.1	20.144
4696.2	21.065
4697.3	23.033
4698.4	23.863
4699.5	21.421
4700.6	22.005
4701.7	21.318
4702.7	22.367
4703.8	23.321
4704.9	23.289
4706.0	23.835
4707.1	22.488
4708.2	21.473
4709.3	20.312
4710.3	18.584
4711.4	20.949
4712.5	22.067
4713.6	21.677
4714.7	22.62
4715.8	25.073
4716.9	22.689
4718.0	21.749
4719.0	22.776
4720.1	20.105
4721.2	21.84
4722.3	24.577
4723.4	26.257
4724.5	24.241
4725.6	23.821
4726.7	23.118
4727.7	24.231
4728.8	23.758
4729.9	20.878
4731.0	24.648
4732.1	25.887
4733.2	23.08
4734.3	22.844
4735.4	24.013
4736.4	24.324
4737.5	22.926
4738.6	21.3
4739.7	20.439
4740.8	22.17
4741.9	24.348
4743.0	24.038
4744.1	23.491
4745.1	21.062
4746.2	21.016
4747.3	22.704
4748.4	24.829
4749.5	23.293
4750.6	22.952
4751.7	25.095
4752.8	26.524
4753.8	23.63
4754.9	21.858
4756.0	23.274
4757.1	19.451
4758.2	21.213
4759.3	21.201
4760.4	19.958
4761.5	21.311
4762.5	21.093
4763.6	22.612
4764.7	21.535
4765.8	23.46
4766.9	23.202
4768.0	21.636
4769.1	23.461
4770.1	23.216
4771.2	20.725
4772.3	20.343
4773.4	21.978
4774.5	21.585
4775.6	21.8
4776.7	21.409
4777.8	20.489
4778.8	20.51
4779.9	21.474
4781.0	21.573
4782.1	21.469
4783.2	21.329
4784.3	23.709
4785.4	23.841
4786.5	23.845
4787.5	22.102
4788.6	23.115
4789.7	24.412
4790.8	23.107
4791.9	21.886
4793.0	19.781
4794.1	21.199
4795.2	22.454
4796.2	21.478
4797.3	22.244
4798.4	23.153
4799.5	21.762
4800.6	19.196
4801.7	19.076
4802.8	22.148
4803.9	21.633
4804.9	21.991
4806.0	22.938
4807.1	22.521
4808.2	23.182
4809.3	23.803
4810.4	23.342
4811.5	21.935
4812.6	22.286
4813.6	23.258
4814.7	22.725
4815.8	21.959
4816.9	20.462
4818.0	21.89
4819.1	23.112
4820.2	21.949
4821.2	21.251
4822.3	21.555
4823.4	22.392
4824.5	23.78
4825.6	23.227
4826.7	22.687
4827.8	22.038
4828.9	24.719
4829.9	22.819
4831.0	21.201
4832.1	19.759
4833.2	21.088
4834.3	22.207
4835.4	23.655
4836.5	22.637
4837.6	21.889
4838.6	22.004
4839.7	21.713
4840.8	20.172
4841.9	19.174
4843.0	20.499
4844.1	20.004
4845.2	21.628
4846.3	21.401
4847.3	18.97
4848.4	19.498
4849.5	20.81
4850.6	22.168
4851.7	19.12
4852.8	20.265
4853.9	19.914
4855.0	18.536
4856.0	19.73
4857.1	19.895
4858.2	19.974
4859.3	20.039
4860.4	19.652
4861.5	20.948
4862.6	21.593
4863.7	19.547
4864.7	18.284
4865.8	18.954
4866.9	19.44
4868.0	20.096
4869.1	20.051
4870.2	19.774
4871.3	17.502
4872.3	16.237
4873.4	16.63
4874.5	20.269
4875.6	19.513
4876.7	18.514
4877.8	20.279
4878.9	19.69
4880.0	19.33
4881.0	20.488
4882.1	21.299
4883.2	19.277
4884.3	17.958
4885.4	18.95
4886.5	19.68
4887.6	22.815
4888.7	23.985
4889.7	20.459
4890.8	17.829
4891.9	17.289
4893.0	17.4
4894.1	19.897
4895.2	18.038
4896.3	17.156
4897.4	18.947
4898.4	19.642
4899.5	22.062
4900.6	20.681
4901.7	17.868
4902.8	18.22
4903.9	19.001
4905.0	19.804
4906.1	19.598
4907.1	20.264
4908.2	20.485
4909.3	20.724
4910.4	20.098
4911.5	19.659
4912.6	20.721
4913.7	19.324
4914.8	17.906
4915.8	17.486
4916.9	19.079
4918.0	21.863
4919.1	20.108
4920.2	20.847
4921.3	20.018
4922.4	18.239
4923.5	18.859
4924.5	21.118
4925.6	20.193
4926.7	18.987
4927.8	19.398
4928.9	18.918
4930.0	18.663
4931.1	19.858
4932.2	18.567
4933.2	18.23
4934.3	21.626
4935.4	20.093
4936.5	18.688
4937.6	19.029
4938.7	21.899
4939.8	22.207
4940.9	19.151
4941.9	17.895
4943.0	18.349
4944.1	17.01
4945.2	17.022
4946.3	15.528
4947.4	17.061
4948.5	19.98
4949.6	18.899
4950.6	18.288
4951.7	18.185
4952.8	17.731
4953.9	16.489
4955.0	17.326
4956.1	16.878
4957.2	16.675
4958.3	17.655
4959.3	17.842
4960.4	18.183
4961.5	18.446
4962.6	16.733
4963.7	16.333
4964.8	17.968
4965.9	18.669
4967.0	18.661
4968.0	19.123
4969.1	19.117
4970.2	17.894
4971.3	16.74
4972.4	17.559
4973.5	16.885
4974.6	16.585
4975.7	17.461
4976.7	17.935
4977.8	16.594
4978.9	16.98
4980.0	17.763
4981.1	16.496
4982.2	15.928
4983.3	18.154
4984.4	17.45
4985.4	16.652
4986.5	18.356
4987.6	19.694
4988.7	19.979
4989.8	19.266
4990.9	19.04
4992.0	19.19
4993.1	17.67
4994.1	16.967
4995.2	19.634
4996.3	20.06
4997.4	18.255
4998.5	18.616
4999.6	20.262
5000.7	19.703
5001.8	18.037
5002.8	18.083
5003.9	18.162
5005.0	19.875
5006.1	19.092
5007.2	18.58
5008.3	19.318
5009.4	18.813
5010.5	19.005
5011.6	19.574
5012.6	17.259
5013.7	17.646
5014.8	18.378
5015.9	17.514
5017.0	17.691
5018.1	16.365
5019.2	17.511
5020.3	17.546
5021.3	17.25
5022.4	17.239
5023.5	16.513
5024.6	19.116
5025.7	18.922
5026.8	19.792
5027.9	18.827
5029.0	15.559
5030.0	17.368
5031.1	19.746
5032.2	17.275
5033.3	16.777
5034.4	18.59
5035.5	16.861
5036.6	18.894
5037.7	18.655
5038.8	14.129
5039.8	13.577
5040.9	15.112
5042.0	15.735
5043.1	14.616
5044.2	15.344
5045.3	16.662
5046.4	14.237
5047.5	14.63
5048.5	17.391
5049.6	15.818
5050.7	13.879
5051.8	14.48
5052.9	12.939
5054.0	15.205
5055.1	16.053
5056.2	14.877
5057.2	15.724
5058.3	14.018
5059.4	14.415
5060.5	15.629
5061.6	11.941
5062.7	15.588
5063.8	15.412
5064.9	13.292
5066.0	13.665
5067.0	12.835
5068.1	13.343
5069.2	13.413
5070.3	13.322
5071.4	11.358
5072.5	13.922
5073.6	12.621
5074.7	13.212
5075.8	12.129
5076.8	14.393
5077.9	14.347
5079.0	13.306
5080.1	13.515
5081.2	10.861
5082.3	14.537
5083.4	13.093
5084.5	13.923
5085.5	12.244
5086.6	12.556
5087.7	14.272
5088.8	13.41
5089.9	10.166
5091.0	12.086
5092.1	10.893
5093.2	10.723
5094.3	12.141
5095.3	13.69
5096.4	11.74
5097.5	12.434
5098.6	13.496
5099.7	12.449
5100.8	13.135
5101.9	14.403
5103.0	9.6912
5104.1	10.41
5105.1	16.42
5106.2	14.332
5107.3	13.913
5108.4	12.744
5109.5	18.179
5110.6	14.457
5111.7	16.515
5112.8	14.268
5113.9	14.145
5114.9	18.963
5116.0	15.245
5117.1	14.623
5118.2	18.83
5119.3	14.964
5120.4	17.103
5121.5	16.942
5122.6	12.371
5123.7	16.32
5124.7	16.901
5125.8	15.071
5126.9	16.22
5128.0	17.131
5129.1	14.326
5130.2	12.274
5131.3	16.564
5132.4	15.818
5133.5	19.259
5134.5	13.891
5135.6	16.843
5136.7	14.899
5137.8	13.618
5138.9	14.478
5140.0	15.304
5141.1	16.045
5142.2	17.715
5143.3	17.43
5144.3	18.335
5145.4	15.59
5146.5	16.367
5147.6	16.11
5148.7	14.578
5149.8	15.367
5150.9	16.543
5152.0	15.82
5153.1	15.407
5154.2	16.885
5155.2	15.604
5156.3	16.631
5157.4	16.145
5158.5	14.969
5159.6	16.609
5160.7	16.887
5161.8	19.082
5162.9	17.543
5164.0	18.815
5165.0	17.184
5166.1	16.625
5167.2	15.885
5168.3	16.879
5169.4	14.835
5170.5	15.75
5171.6	20.823
5172.7	17.763
5173.8	15.48
5174.9	17.549
5175.9	18.406
5177.0	16.907
5178.1	16.471
5179.2	14.936
5180.3	15.363
5181.4	16.584
5182.5	17.911
5183.6	16.043
5184.7	15.191
5185.8	14.989
5186.8	14.678
5187.9	14.966
5189.0	16.387
5190.1	17.809
5191.2	18.157
5192.3	18.526
5193.4	17.247
5194.5	17.322
5195.6	16.405
5196.7	14.604
5197.7	16.04
5198.8	16.326
5199.9	17.133
5201.0	18.32
5202.1	18.092
5203.2	15.246
5204.3	14.267
5205.4	15.758
5206.5	17.531
5207.6	16.445
5208.6	16.699
5209.7	16.976
5210.8	15.662
5211.9	14.801
5213.0	16.741
5214.1	18.319
5215.2	19.391
5216.3	17.856
5217.4	18.379
5218.5	17.183
5219.5	16.895
5220.6	18.28
5221.7	15.617
5222.8	17.238
5223.9	18.381
5225.0	15.964
5226.1	16.592
5227.2	13.588
5228.3	16.013
5229.4	17.957
5230.5	20.033
5231.5	17.849
5232.6	18.177
5233.7	17.292
5234.8	16.778
5235.9	14.822
5237.0	16.666
5238.1	16.417
5239.2	14.939
5240.3	16.683
5241.4	18.297
5242.5	19.766
5243.5	16.097
5244.6	15.703
5245.7	14.132
5246.8	17.184
5247.9	15.249
5249.0	16.623
5250.1	16.542
5251.2	15.276
5252.3	16.261
5253.4	14.671
5254.5	13.803
5255.5	16.392
5256.6	16.555
5257.7	15.62
5258.8	18.186
5259.9	16.112
5261.0	17.098
5262.1	19.144
5263.2	18.809
5264.3	18.716
5265.4	15.2
5266.5	15.027
5267.5	18.001
5268.6	16.773
5269.7	19.298
5270.8	17.531
5271.9	18.453
5273.0	18.662
5274.1	18.289
5275.2	16.794
5276.3	15.45
5277.4	18.867
5278.5	18.868
5279.6	16.401
5280.6	16.428
5281.7	19.238
5282.8	18.088
5283.9	16.354
5285.0	15.614
5286.1	16.858
5287.2	17.715
5288.3	18.072
5289.4	19.463
5290.5	19.917
5291.6	18.78
5292.7	18.46
5293.8	19.043
5294.8	20.48
5295.9	20.797
5297.0	19.087
5298.1	19.638
5299.2	18.245
5300.3	17.444
5301.4	19.008
5302.5	21.448
5303.6	18.683
5304.7	18.175
5305.8	21.645
5306.9	18.19
5308.0	16.564
5309.0	19.298
5310.1	19.164
5311.2	20.445
5312.3	19.839
5313.4	19.264
5314.5	19.346
5315.6	18.288
5316.7	19.569
5317.8	21.235
5318.9	20.814
5320.0	17.073
5321.1	20.077
5322.2	17.342
5323.2	18.595
5324.3	22.081
5325.4	22.063
5326.5	20.252
5327.6	19.285
5328.7	23.262
5329.8	21.733
5330.9	22.347
5332.0	20.573
5333.1	17.683
5334.2	20.996
5335.3	20.554
5336.4	17.235
5337.5	16.381
5338.6	19.155
5339.6	18.612
5340.7	20.93
5341.8	18.302
5342.9	18.039
5344.0	19.759
5345.1	15.754
5346.2	20.547
5347.3	21.076
5348.4	21.632
5349.5	17.278
5350.6	18.228
5351.7	19.843
5352.8	20.832
5353.9	19.747
5355.0	19.227
5356.0	16.937
5357.1	15.733
5358.2	18.419
5359.3	20.117
5360.4	18.521
5361.5	17.83
5362.6	18.749
5363.7	19.317
5364.8	20.141
5365.9	20.2
5367.0	18.076
5368.1	17.765
5369.2	18.422
5370.3	19.307
5371.4	18.47
5372.5	16.609
5373.6	18.513
5374.6	17.34
5375.7	19.582
5376.8	19.275
5377.9	18.264
5379.0	22.482
5380.1	19.163
5381.2	14.161
5382.3	14.697
5383.4	19.879
5384.5	15.522
5385.6	18.423
5386.7	16.338
5387.8	17.861
5388.9	14.937
5390.0	13.188
5391.1	18.043
5392.2	20.154
5393.3	18.184
5394.4	20.908
5395.4	17.941
5396.5	13.028
5397.6	13.218
5398.7	14.511
5399.8	16.184
5400.9	18.161
5402.0	14.975
5403.1	13.659
5404.2	17.121
5405.3	14.417
5406.4	18.989
5407.5	14.86
5408.6	15.11
5409.7	19.812
5410.8	19.796
5411.9	19.412
5413.0	19.352
5414.1	18.739
5415.2	16.125
5416.3	16.591
5417.4	18.582
5418.4	17.495
5419.5	18.032
5420.6	16.144
5421.7	17.156
5422.8	20.373
5423.9	16.572
5425.0	17.352
5426.1	18.136
5427.2	16.582
5428.3	16.88
5429.4	18.721
5430.5	16.67
5431.6	16.513
5432.7	21.567
5433.8	17.294
5434.9	14.39
5436.0	20.005
5437.1	16.53
5438.2	18.138
5439.3	17.686
5440.4	20.496
5441.5	15.027
5442.6	19.714
5443.7	17.926
5444.8	15.297
5445.9	19.662
5447.0	16.701
5448.0	16.087
5449.1	18.27
5450.2	18.224
5451.3	15.029
5452.4	17.188
5453.5	14.334
5454.6	14.467
5455.7	11.372
5456.8	18.133
5457.9	17.003
5459.0	18.368
5460.1	17.414
5461.2	16.493
5462.3	18.446
5463.4	16.035
5464.5	17.478
5465.6	16.007
5466.7	12.797
5467.8	11.318
5468.9	12.109
5470.0	15.147
5471.1	17.089
5472.2	15.705
5473.3	15.514
5474.4	15.389
5475.5	11.593
5476.6	13.689
5477.7	17.262
5478.8	13.076
5479.9	12.159
5481.0	16.612
5482.1	15.907
5483.2	14.644
5484.3	14.418
5485.4	14.96
5486.5	17.094
5487.6	10.983
5488.7	12.005
5489.8	13.336
5490.9	13.7
5492.0	10.422
5493.1	14.589
5494.2	11.376
5495.3	13.572
5496.4	14.446
5497.5	13.816
5498.6	12.587
5499.6	13.453
5500.7	11.884
5501.8	10.865
5502.9	15.275
5504.0	16.121
5505.1	12.839
5506.2	14.647
5507.3	13.761
5508.4	10.902
5509.5	13.018
5510.6	13.421
5511.7	13.196
5512.8	14.827
5513.9	12.26
5515.0	13.84
5516.1	17.072
5517.2	16.163
5518.3	16.286
5519.4	17.279
5520.5	13.16
5521.6	14.499
5522.7	13.776
5523.8	17.033
5524.9	11.156
5526.0	11.478
5527.1	18.62
5528.2	14.893
5529.3	11.995
5530.4	11.137
5531.5	17.96
5532.6	13.877
5533.7	16.045
5534.8	16.859
5535.9	7.2102
5537.0	9.4818
5538.1	11.113
5539.2	10.126
5540.3	14.333
5541.4	15.698
5542.5	10.992
5543.6	14.022
5544.7	12.05
5545.8	13.478
5546.9	12.989
5548.0	13.147
5549.1	11.622
5550.3	13.935
5551.4	13.986
5552.5	12.481
5553.6	8.2948
5554.7	7.4833
5555.8	13.053
5556.9	14.42
5558.0	9.2971
5559.1	9.0044
5560.2	6.5892
5561.3	13.097
5562.4	9.7444
5563.5	10.231
5564.6	13.475
5565.7	21.014
5566.8	19.022
5567.9	13.087
5569.0	18.582
5570.1	11.528
5571.2	15.598
5572.3	10.207
5573.4	12.732
5574.5	14.912
5575.6	32.982
5576.7	15.252
5577.8	12.182
5578.9	12.821
5580.0	14.614
5581.1	18.322
5582.2	16.468
5583.3	9.6006
5584.4	8.6573
5585.5	10.241
5586.6	18.882
5587.7	12.897
5588.8	13.614
5589.9	14.754
5591.0	8.1759
5592.1	15.755
5593.2	10.882
5594.3	7.0766
5732.2	10.499
5733.7	9.2033
5735.3	10.555
5736.8	10.483
5738.3	10.601
5739.8	10.341
5741.4	10.917
5742.9	11.938
5744.4	11.306
5745.9	11.53
5747.5	12.118
5749.0	11.768
5750.5	11.669
5752.0	11.502
5753.6	11.698
5755.1	12.738
5756.6	12.487
5758.1	12.523
5759.7	12.492
5761.2	12.313
5762.7	12.167
5764.2	11.802
5765.8	11.893
5767.3	11.256
5768.8	11.87
5770.3	12.794
5771.9	12.721
5773.4	12.02
5774.9	12.364
5776.4	12.53
5778.0	12.062
5779.5	12.402
5781.0	11.885
5782.5	11.712
5784.0	11.886
5785.6	11.727
5787.1	11.51
5788.6	11.7
5790.1	12.142
5791.7	11.578
5793.2	10.78
5794.7	10.546
5796.2	11.171
5797.8	11.924
5799.3	11.613
5800.8	11.788
5802.3	12.411
5803.9	12.7
5805.4	12.189
5806.9	11.859
5808.4	11.774
5810.0	12.255
5811.5	12.446
5813.0	12.779
5814.5	12.723
5816.1	11.306
5817.6	11.043
5819.1	12.952
5820.6	12.852
5822.2	12.492
5823.7	12.925
5825.2	12.333
5826.7	12.523
5828.3	13.133
5829.8	12.03
5831.3	12.085
5832.8	11.928
5834.4	12.268
5835.9	12.75
5837.4	12.768
5838.9	12.943
5840.5	13.512
5842.0	13.5
5843.5	13.226
5845.0	12.702
5846.6	12.611
5848.1	12.553
5849.6	11.998
5851.1	12.5
5852.7	12.633
5854.2	12.29
5855.7	12.259
5857.2	10.772
5858.8	11.242
5860.3	12.016
5861.8	12.414
5863.3	12.705
5864.9	13.074
5866.4	12.274
5867.9	11.822
5869.4	11.73
5871.0	12.036
5872.5	12.387
5874.0	12.234
5875.5	12.343
5877.1	12.139
5878.6	11.551
5880.1	11.306
5881.6	11.482
5883.2	11.556
5884.7	10.772
5886.2	11.348
5887.7	11.708
5889.3	11.368
5890.8	11.673
5892.3	12.952
5893.8	12.53
5895.4	12.552
5896.9	14.051
5898.4	13.763
5900.0	11.283
5901.5	11.202
5903.0	11.562
5904.5	12.117
5906.1	12.751
5907.6	11.13
5909.1	11.579
5910.6	12.597
5912.2	11.733
5913.7	12.174
5915.2	12.818
5916.7	11.123
5918.3	12.086
5919.8	11.769
5921.3	10.884
5922.8	12.332
5924.4	12.436
5925.9	12.704
5927.4	13.505
5928.9	12.569
5930.5	11.888
5932.0	12.203
5933.5	11.817
5935.0	11.314
5936.6	11.858
5938.1	12.096
5939.6	12.074
5941.1	12.545
5942.7	12.524
5944.2	11.325
5945.7	11.335
5947.2	11.921
5948.8	11.767
5950.3	11.465
5951.8	12.09
5953.4	11.703
5954.9	12.375
5956.4	11.574
5957.9	11.233
5959.5	11.633
5961.0	11.61
5962.5	11.742
5964.0	12.056
5965.6	11.598
5967.1	11.222
5968.6	11.185
5970.1	10.344
5971.7	10.537
5973.2	11.127
5974.7	10.735
5976.2	10.773
5977.8	10.04
5979.3	10.021
5980.8	10.528
5982.4	10.918
5983.9	9.9744
5985.4	10.078
5986.9	9.5837
5988.5	10.864
5990.0	10.032
5991.5	10.509
5993.0	10.522
5994.6	10.323
5996.1	9.6089
5997.6	9.2018
5999.1	10.435
6000.7	10.424
6002.2	11.253
6003.7	10.548
6005.2	9.5989
6006.8	9.5782
6008.3	10.03
6009.8	10.291
6011.4	8.9141
6012.9	8.7394
6014.4	10.5
6015.9	10.051
6017.5	9.5898
6019.0	9.5398
6020.5	10.836
6022.0	10.625
6023.6	10.03
6025.1	9.5928
6026.6	9.4434
6028.1	10.036
6029.7	8.9005
6031.2	8.7561
6032.7	9.5809
6034.3	10.218
6035.8	10.184
6037.3	9.5552
6038.8	9.6573
6040.4	9.9131
6041.9	9.4776
6043.4	10.529
6044.9	9.8385
6046.5	10.242
6048.0	10.76
6049.5	10.681
6051.0	10.381
6052.6	9.7111
6054.1	10.491
6055.6	9.6886
6057.2	10.483
6058.7	10.299
6060.2	10.005
6061.7	10.523
6063.3	10.474
6064.8	11.282
6066.3	10.504
6067.8	10.967
6069.4	10.888
6070.9	10.196
6072.4	10.627
6074.0	10.307
6075.5	10.243
6077.0	10.435
6078.5	10.362
6080.1	10.368
6081.6	10.873
6083.1	10.864
6084.6	11.307
6086.2	11.445
6087.7	11.011
6089.2	10.655
6090.8	10.637
6092.3	10.28
6093.8	10.696
6095.3	11.068
6096.9	11.252
6098.4	12.209
6099.9	10.658
6101.4	10.644
6103.0	11.057
6104.5	10.887
6106.0	11.117
6107.6	12.434
6109.1	11.797
6110.6	12.033
6112.1	11.189
6113.7	10.228
6115.2	11.347
6116.7	12.273
6118.2	12.241
6119.8	12.281
6121.3	12.086
6122.8	11.758
6124.4	11.259
6125.9	11.996
6127.4	12.032
6128.9	12.666
6130.5	12.135
6132.0	12.312
6133.5	11.401
6135.1	11.377
6136.6	12.078
6138.1	12.437
6139.6	11.983
6141.2	11.781
6142.7	12.271
6144.2	12.406
6145.7	11.017
6147.3	12.789
6148.8	13.595
6150.3	11.71
6151.9	10.737
6153.4	10.52
6154.9	11.267
6156.4	11.573
6158.0	11.681
6159.5	12.411
6161.0	12.023
6162.6	12.296
6164.1	10.636
6165.6	11.847
6167.1	11.951
6168.7	11.753
6170.2	11.207
6171.7	11.859
6173.3	11.036
6174.8	11.549
6176.3	10.724
6177.8	12.162
6179.4	12.538
6180.9	11.764
6182.4	12.628
6183.9	11.945
6185.5	12.638
6187.0	11.798
6188.5	11.434
6190.1	12.436
6191.6	11.659
6193.1	12.602
6194.6	11.653
6196.2	11.878
6197.7	11.851
6199.2	10.401
6200.8	11.15
6202.3	11.846
6203.8	11.28
6205.3	11.67
6206.9	12.954
6208.4	12.598
6209.9	12.056
6211.5	12.336
6213.0	11.997
6214.5	11.596
6216.0	12.077
6217.6	11.436
6219.1	11.792
6220.6	11.497
6222.2	11.448
6223.7	12.021
6225.2	12.17
6226.7	13.11
6228.3	12.686
6229.8	11.426
6231.3	11.99
6232.9	11.918
6234.4	11.888
6235.9	11.551
6237.4	11.246
6239.0	10.916
6240.5	11.823
6242.0	12.295
6243.6	12.879
6245.1	11.683
6246.6	10.782
6248.1	11.583
6249.7	11.978
6251.2	11.883
6252.7	11.724
6254.3	10.676
6255.8	11.337
6257.3	11.069
6258.8	11.834
6260.4	12.47
6261.9	11.027
6263.4	11.072
6265.0	12.244
6266.5	11.543
6268.0	11.594
6269.6	10.977
6271.1	11.813
6272.6	11.562
6274.1	10.677
6275.7	10.522
6277.2	10.68
6278.7	10.154
6280.3	10.107
6281.8	10.328
6283.3	10.263
6284.8	11.511
6286.4	10.574
6287.9	10.579
6289.4	11.395
6291.0	11.369
6292.5	10.391
6294.0	9.5967
6295.5	12.077
6297.1	10.626
6298.6	9.7731
6300.1	11.172
6301.7	10.721
6303.2	10.391
6304.7	9.6535
6306.3	10.219
6307.8	10.106
6309.3	9.3745
6310.8	10.087
6312.4	9.1823
6313.9	9.1799
6315.4	9.8035
6317.0	8.8863
6318.5	9.4162
6320.0	9.0874
6321.5	9.1856
6323.1	8.7911
6324.6	8.1768
6326.1	7.6779
6327.7	8.2557
6329.2	8.7216
6330.7	8.795
6332.3	8.5069
6333.8	8.7403
6335.3	8.3215
6336.8	8.6724
6338.4	7.3212
6339.9	7.6756
6341.4	7.1379
6343.0	7.1912
6344.5	7.281
6346.0	6.8501
6347.6	7.2806
6349.1	7.198
6350.6	7.0181
6352.1	7.4626
6353.7	6.717
6355.2	6.0657
6356.7	7.1871
6358.3	7.3563
6359.8	6.5107
6361.3	5.5448
6362.9	5.5632
6364.4	5.4917
6365.9	6.0369
6367.4	6.629
6369.0	5.6969
6370.5	6.4873
6372.0	5.6573
6373.6	5.7947
6375.1	6.1844
6376.6	5.7131
6378.2	5.2322
6379.7	4.5031
6381.2	5.7752
6382.7	5.2491
6384.3	5.2358
6385.8	5.2541
6387.3	6.316
6388.9	5.6579
6390.4	5.4727
6391.9	5.566
6393.5	5.5751
6395.0	5.8034
6396.5	5.7485
6398.0	6.403
6399.6	5.8151
6401.1	5.5677
6402.6	6.6757
6404.2	5.7476
6405.7	6.4125
6407.2	6.5725
6408.8	5.9522
6410.3	5.7457
6411.8	6.4064
6413.3	6.3457
6414.9	6.2023
6416.4	6.1422
6417.9	6.0161
6419.5	6.7795
6421.0	6.8012
6422.5	6.3512
6424.1	6.5008
6425.6	6.7264
6427.1	5.5867
6428.7	5.7257
6430.2	6.6232
6431.7	6.153
6433.2	7.3066
6434.8	6.9947
6436.3	7.3712
6437.8	6.1605
6439.4	6.622
6440.9	6.5746
6442.4	6.6543
6444.0	6.4844
6445.5	7.1159
6447.0	6.6268
6448.6	6.9897
6450.1	6.3293
6451.6	6.85
6453.1	7.8701
6454.7	8.1216
6456.2	8.1594
6457.7	8.4355
6459.3	7.0093
6460.8	7.9905
6462.3	7.3471
6463.9	8.3709
6465.4	9.0693
6466.9	7.8561
6468.5	8.4399
6470.0	8.5643
6471.5	8.1068
6473.0	8.6944
6474.6	8.1728
6476.1	7.9491
6477.6	8.4874
6479.2	8.9923
6480.7	9.5583
6482.2	9.9984
6483.8	8.3007
6485.3	8.5822
6486.8	10.031
6488.4	9.025
6489.9	9.6922
6491.4	9.4875
6493.0	8.9884
6494.5	9.2131
6496.0	8.8721
6497.5	8.7692
6499.1	10.047
6500.6	10.164
6502.1	8.6517
6503.7	10.048
6505.2	9.9741
6506.7	9.6062
6508.3	10.047
6509.8	10.13
6511.3	10.135
6512.9	9.5046
6514.4	9.2015
6515.9	9.4986
6517.5	9.5162
6519.0	10.386
6520.5	10.763
6522.0	10.364
6523.6	9.9201
6525.1	9.8257
6526.6	11.413
6528.2	11.075
6529.7	10.777
6531.2	10.492
6532.8	10.261
6534.3	10.338
6535.8	11.144
6537.4	10.465
6538.9	9.695
6540.4	10.684
6542.0	11.156
6543.5	11.372
6545.0	10.692
6546.6	11.42
6548.1	11.296
6549.6	11.682
6551.2	11.25
6552.7	10.615
6554.2	12.226
6555.7	11.721
6557.3	11.53
6558.8	12.0
6560.3	11.977
6561.9	12.403
6563.4	11.15
6564.9	11.241
6566.5	10.802
6568.0	11.642
6569.5	11.696
6571.1	12.166
6572.6	11.513
6574.1	11.622
6575.7	11.688
6577.2	11.805
6578.7	11.474
6580.3	11.245
6581.8	11.806
6583.3	11.306
6584.9	10.673
6586.4	11.398
6587.9	11.491
6589.5	10.104
6591.0	11.383
6592.5	10.766
6594.0	10.502
6595.6	11.095
6597.1	10.433
6598.6	11.08
6600.2	11.068
6601.7	11.283
6603.2	11.761
6604.8	11.983
6606.3	10.857
6607.8	11.583
6609.4	11.3
6610.9	11.085
6612.4	12.144
6614.0	11.27
6615.5	10.749
6617.0	11.255
6618.6	11.497
6620.1	11.391
6621.6	10.702
6623.2	10.709
6624.7	12.113
6626.2	11.461
6627.8	11.806
6629.3	11.002
6630.8	12.183
6632.4	11.102
6633.9	11.498
6635.4	11.318
6637.0	10.56
6638.5	11.349
6640.0	9.9564
6641.6	11.075
6643.1	10.842
6644.6	11.03
6646.2	11.909
6647.7	11.694
6649.2	11.588
6650.8	10.783
6652.3	11.393
6653.8	11.676
6655.3	12.545
6656.9	11.67
6658.4	11.787
6659.9	11.414
6661.5	11.68
6663.0	11.645
6664.5	11.485
6666.1	11.518
6667.6	11.317
6669.1	11.516
6670.7	12.028
6672.2	11.127
6673.7	12.224
6675.3	12.493
6676.8	11.396
6678.3	10.943
6679.9	10.884
6681.4	11.419
6682.9	12.076
6684.5	11.435
6686.0	12.56
6687.5	11.676
6689.1	10.969
6690.6	11.588
6692.1	11.613
6693.7	11.116
6695.2	11.37
6696.7	10.824
6698.3	11.291
6699.8	11.185
6701.3	11.779
6702.9	10.977
6704.4	11.531
6705.9	11.854
6707.5	11.916
6709.0	11.282
6710.5	11.195
6712.1	10.817
6713.6	11.106
6715.1	11.583
6716.7	11.034
6718.2	11.413
6719.7	11.613
6721.3	12.417
6722.8	11.071
6724.3	10.737
6725.9	6.2738
6727.4	4.6516
6728.9	8.8975
6730.5	10.359
6732.0	10.615
6733.5	11.181
6735.1	11.573
6736.6	11.038
6738.1	9.9122
6739.7	10.708
6741.2	11.666
6742.7	11.601
6744.3	10.829
6745.8	10.405
6747.3	11.033
6748.9	10.799
6750.4	10.916
6751.9	10.888
6753.5	10.354
6755.0	10.504
6756.5	10.709
6758.1	10.434
6759.6	11.24
6761.2	10.558
6762.7	10.997
6764.2	11.378
6765.8	11.27
6767.3	10.914
6768.8	10.519
6770.4	11.295
6771.9	11.017
6773.4	11.292
6775.0	10.503
6776.5	10.473
6778.0	10.595
6779.6	10.768
6781.1	10.408
6782.6	10.714
6784.2	10.244
6785.7	11.512
6787.2	10.854
6788.8	10.276
6790.3	9.596
6791.8	10.787
6793.4	10.786
6794.9	10.643
6796.4	10.609
6798.0	10.588
6799.5	10.15
6801.0	11.121
6802.6	10.63
6804.1	10.738
6805.6	10.064
6807.2	10.09
6808.7	10.937
6810.2	10.471
6811.8	10.981
6813.3	10.714
6814.8	10.631
6816.4	10.378
6817.9	10.477
6819.4	10.379
6821.0	10.374
6822.5	10.18
6824.1	10.291
6825.6	10.39
6827.1	11.042
6828.7	10.596
6830.2	10.707
6831.7	10.422
6833.3	11.015
6834.8	10.53
6836.3	10.324
6837.9	10.558
6839.4	10.154
6840.9	10.172
6842.5	9.3675
6844.0	9.8996
6845.5	10.57
6847.1	10.468
6848.6	10.307
6850.1	9.7171
6851.7	10.209
6853.2	9.9349
6854.7	10.25
6856.3	10.929
6857.8	12.552
6859.3	14.464
6860.9	14.231
6862.4	12.511
6864.0	9.9155
6865.5	8.933
6867.0	9.4567
6868.6	9.1365
6870.1	9.2334
6871.6	9.4583
6873.2	9.8173
6874.7	9.9542
6876.2	10.172
6877.8	10.835
6879.3	10.179
6880.8	11.374
6882.4	12.033
6883.9	10.81
6885.4	10.013
6887.0	9.4951
6888.5	9.8241
6890.0	9.1106
6891.6	9.4358
6893.1	9.7181
6894.7	8.4087
6896.2	9.7242
6897.7	9.8546
6899.3	9.7943
6900.8	10.369
6902.3	9.8203
6903.9	9.7698
6905.4	9.5967
6906.9	9.4431
6908.5	9.5244
6910.0	9.8744
6911.5	9.9323
6913.1	9.6143
6914.6	9.8491
6916.1	9.9801
6917.7	9.5683
6919.2	9.8634
6920.8	9.8872
6922.3	9.637
6923.8	9.3586
6925.4	9.2697
6926.9	8.4238
6928.4	8.6138
6930.0	9.2537
6931.5	9.4502
6933.0	9.2509
6934.6	8.7017
6936.1	9.7139
6937.6	9.3375
6939.2	9.5239
6940.7	9.7433
6942.3	9.1552
6943.8	9.4118
6945.3	8.4995
6946.9	8.6053
6948.4	9.5616
6949.9	9.273
6951.5	9.2479
6953.0	9.0349
6954.5	9.2655
6956.1	9.1532
6957.6	9.5382
6959.1	9.5276
6960.7	9.4028
6962.2	9.4899
6963.8	9.4612
6965.3	9.6031
6966.8	9.2254
6968.4	9.2378
6969.9	9.1615
6971.4	9.8989
6973.0	9.713
6974.5	9.2146
6976.0	9.6769
6977.6	9.4526
6979.1	9.1034
6980.6	9.5774
6982.2	9.2999
6983.7	9.955
6985.3	9.6571
6986.8	8.8297
6988.3	8.7718
6989.9	9.1937
6991.4	9.0202
6992.9	8.4917
6994.5	9.3897
6996.0	9.5896
6997.5	8.8351
6999.1	9.1576
7000.6	9.2727
7002.2	9.7084
7003.7	8.697
7005.2	9.3667
7006.8	8.9173
7008.3	8.4689
7009.8	9.0494
7011.4	9.4189
7012.9	8.9579
7014.4	9.5296
7016.0	9.0623
7017.5	9.2977
7019.1	8.8324
7020.6	9.062
7022.1	9.7517
7023.7	8.5694
7025.2	8.7462
7026.7	9.1503
7028.3	8.6515
7029.8	8.4025
7031.3	8.2825
7032.9	8.7045
7034.4	8.0218
7036.0	9.1385
7037.5	8.884
7039.0	8.2373
7040.6	8.9065
7042.1	8.5127
7043.6	8.6103
7045.2	8.8599
7046.7	8.5663
7048.2	8.6014
7049.8	8.64
7051.3	8.6351
7052.9	8.0388
7054.4	9.211
7055.9	8.7651
7057.5	8.8156
7059.0	9.3449
7060.5	8.5698
7062.1	8.6436
7063.6	8.1355
7065.1	8.4456
7066.7	8.0273
7068.2	7.8707
7069.8	8.2346
7071.3	8.2949
7072.8	8.8968
7074.4	8.3998
7075.9	8.0075
7077.4	8.0241
7079.0	8.1414
7080.5	8.1116
7082.1	8.3087
7083.6	8.5317
7085.1	8.4637
7086.7	7.8126
7088.2	8.1424
7089.7	8.2101
7091.3	8.4362
7092.8	8.0273
7094.4	8.1035
7095.9	8.2829
7097.4	7.7876
7099.0	8.1026
7100.5	8.1362
7102.0	8.005
7103.6	7.9673
7105.1	7.4747
7106.6	8.2136
7108.2	7.9213
7109.7	7.9538
7111.3	8.1596
7112.8	8.2935
7114.3	8.5654
7115.9	8.627
7117.4	8.5738
7118.9	8.0661
7120.5	8.4303
7122.0	8.1988
7123.6	8.1462
7125.1	7.9781
7126.6	7.675
7128.2	8.078
7129.7	8.3383
7131.2	8.2772
7132.8	7.8357
7134.3	8.0123
7135.9	8.7444
7137.4	8.5374
7138.9	8.4258
7140.5	8.5528
7142.0	8.1775
7143.5	8.3646
7145.1	8.2401
7146.6	8.2185
7148.2	8.1552
7149.7	8.3847
7151.2	8.0307
7152.8	8.2747
7154.3	8.6803
7155.8	8.7708
7157.4	8.7921
7158.9	8.6026
7160.5	8.5298
7162.0	9.3005
7163.5	8.146
7165.1	8.0684
7166.6	8.0232
7168.1	8.1403
7169.7	8.5828
7171.2	8.2839
7172.8	7.9093
7174.3	7.5754
7175.8	8.3346
7177.4	7.7762
7178.9	7.2828
7180.4	7.898
7182.0	7.2498
7183.5	7.7149
7185.1	7.5574
7186.6	7.2372
7188.1	7.7775
7189.7	7.9059
7191.2	7.4438
7192.8	7.281
7194.3	7.0496
7195.8	7.4908
7197.4	7.5649
7198.9	7.4301
7200.4	7.52
7202.0	7.7987
7203.5	7.7337
7205.1	7.6694
7206.6	8.1103
7208.1	8.4759
7209.7	8.4596
7211.2	8.1271
7212.7	8.2479
7214.3	7.6352
7215.8	7.585
7217.4	8.5287
7218.9	7.9313
7220.4	8.2876
7222.0	8.2767
7223.5	7.4546
7225.1	7.4567
7226.6	7.4173
7228.1	7.6872
7229.7	7.5112
7231.2	7.3831
7232.7	7.7539
7234.3	7.4626
7235.8	7.5675
7237.4	7.7991
7238.9	8.0046
7240.4	8.019
7242.0	7.3778
7243.5	6.7357
7245.1	7.9586
7246.6	8.1301
7248.1	7.7593
7249.7	7.4655
7251.2	7.5956
7252.7	7.3851
7254.3	7.6823
7255.8	7.6537
7257.4	7.7864
7258.9	7.5872
7260.4	7.5213
7262.0	7.5538
7263.5	7.5377
7265.1	7.9038
7266.6	7.4985
7268.1	7.923
7269.7	8.2541
7271.2	7.0689
7272.7	7.3389
7274.3	7.2253
7275.8	6.7729
7277.4	7.3968
7278.9	7.7498
7280.4	6.9136
7282.0	7.4179
7283.5	8.1529
7285.1	7.8016
7286.6	7.2634
7288.1	7.3234
7289.7	7.0732
7291.2	6.9288
7292.8	7.2847
7294.3	7.4067
7295.8	7.7261
7297.4	6.9613
7298.9	7.044
7300.4	7.5471
7302.0	7.7876
7303.5	7.1457
7305.1	7.4195
7306.6	7.5749
7308.1	6.9748
7309.7	7.6092
7311.2	7.7296
7312.8	7.1421
7314.3	6.9799
7315.8	7.3757
7317.4	8.1832
7318.9	7.5046
7320.5	7.3903
7322.0	7.1793
7323.5	7.0995
7325.1	7.4897
7326.6	7.3306
7328.2	7.4374
7329.7	6.9495
7331.2	6.6157
7332.8	7.3009
7334.3	7.323
7335.8	7.562
7337.4	7.7468
7338.9	7.5257
7340.5	7.8485
7342.0	7.591
7343.5	7.5234
7345.1	7.3989
7346.6	7.6656
7348.2	7.3527
7349.7	7.2251
7351.2	7.1131
7352.8	7.0763
7354.3	7.8422
7355.9	7.4342
7357.4	7.2501
7358.9	7.3686
7360.5	6.9481
7362.0	7.07
7363.6	7.2468
7365.1	7.6043
7366.6	7.3736
7368.2	7.0963
7369.7	7.5928
7371.3	8.1063
7372.8	7.7164
7374.3	6.9854
7375.9	6.9973
7377.4	7.6281
7379.0	7.675
7380.5	7.7382
7382.0	7.4208
7383.6	7.3871
7385.1	7.3201
7386.7	7.7469
7388.2	8.0685
7389.7	7.5292
7391.3	7.7621
7392.8	7.7043
7394.4	7.9527
7395.9	7.6201
7397.4	7.1293
7399.0	6.9443
7400.5	6.8344
7402.0	7.2578
7403.6	7.2703
7405.1	7.3528
7406.7	7.5532
7408.2	7.8218
7409.7	7.9529
7411.3	7.6162
7412.8	7.7958
7414.4	7.5545
7415.9	7.4373
7417.4	7.9176
7419.0	7.6961
7420.5	7.346
7422.1	7.2803
7423.6	7.6228
7425.1	7.8169
7426.7	7.5404
7428.2	7.9811
7429.8	7.9643
7431.3	8.569
7432.8	8.1089
7434.4	7.5348
7435.9	7.9322
7437.5	7.4493
7439.0	7.721
7440.6	7.5905
7442.1	7.4778
7443.6	7.7163
7445.2	7.7793
7446.7	8.1632
7448.3	8.4631
7449.8	8.2863
7451.3	7.3053
7452.9	7.4947
7454.4	7.9224
7456.0	7.8656
7457.5	7.9683
7459.0	7.8089
7460.6	7.5489
7462.1	7.4888
7463.7	7.5627
7465.2	7.5425
7466.7	7.6684
7468.3	7.5214
7469.8	7.5331
7471.4	7.9518
7472.9	8.1419
7474.4	7.7828
7476.0	7.5096
7477.5	7.7933
7479.1	7.5372
7480.6	7.8973
7482.1	8.1619
7483.7	7.801
7485.2	7.4274
7486.8	7.3865
7488.3	7.5016
7489.8	7.2493
7491.4	7.0799
7492.9	7.2108
7494.5	7.759
7496.0	7.8987
7497.5	7.7946
7499.1	7.9381
7500.6	7.7759
7502.2	7.7545
7503.7	8.0634
7505.3	7.9104
7506.8	7.5301
7508.3	7.1711
7509.9	7.696
7511.4	7.8244
7513.0	7.2977
7514.5	7.383
7516.0	7.643
7517.6	8.1118
7519.1	8.072
7520.7	7.6218
7522.2	7.4959
7523.7	8.1075
7525.3	8.2797
7526.8	8.448
7528.4	8.7229
7529.9	8.1467
7531.4	7.5587
7533.0	7.6253
7534.5	7.6788
7536.1	7.4762
7537.6	7.1807
7539.2	7.3393
7540.7	6.8013
7542.2	6.9709
7543.8	7.7686
7545.3	7.5244
7546.9	7.5313
7548.4	7.5442
7549.9	7.7551
7551.5	7.3808
7553.0	7.0661
7554.6	7.4307
7556.1	7.9318
7557.6	8.1324
7559.2	7.5174
7560.7	7.7806
7562.3	7.8433
7563.8	7.5342
7565.4	7.8049
7566.9	7.5578
7568.4	7.7402
7570.0	7.587
7571.5	7.698
7573.1	8.1833
7574.6	7.8513
7576.1	7.7604
7577.7	7.359
7579.2	6.6862
7580.8	6.9534
7582.3	6.91
7583.8	7.2257
7585.4	7.4321
7586.9	7.4628
7588.5	7.6673
7590.0	7.1937
7591.6	6.5228
7593.1	6.4637
7594.6	6.5019
7596.2	6.4974
7597.7	7.0323
7599.3	6.5752
7600.8	5.3189
7602.3	6.2028
7603.9	6.3958
7605.4	6.7195
7607.0	6.3802
7608.5	7.5124
7610.1	7.5166
7611.6	5.7235
7613.1	6.1549
7614.7	6.2887
7616.2	6.3902
7617.8	6.7295
7619.3	6.6271
7620.8	6.6243
7622.4	6.7095
7623.9	6.8425
7625.5	7.2771
7627.0	6.5544
7628.6	6.8436
7630.1	6.8848
7631.6	6.3446
7633.2	5.8398
7634.7	6.1346
7636.3	6.5437
7637.8	6.7107
7639.3	7.0654
7640.9	6.8182
7642.4	7.1603
7644.0	6.8294
7645.5	6.1978
7647.1	7.1497
7648.6	7.1317
7650.1	6.9774
7651.7	6.7066
7653.2	6.5034
7654.8	6.705
7656.3	6.1142
7657.8	6.5834
7659.4	7.128
7660.9	6.7894
7662.5	6.6269
7664.0	6.2633
7665.6	6.0724
7667.1	6.4089
7668.6	6.5989
7670.2	6.6038
7671.7	6.5152
7673.3	6.4421
7674.8	6.0741
7676.4	6.1678
7677.9	6.8477
7679.4	6.7559
7681.0	6.4704
7682.5	6.2695
7684.1	6.3204
7685.6	6.6465
7687.1	6.5251
7688.7	6.3623
7690.2	6.1594
7691.8	6.2717
7693.3	6.8188
7694.9	7.1315
7696.4	7.2058
7697.9	6.705
7699.5	6.5878
7701.0	6.891
7702.6	6.7887
7704.1	6.5993
7705.7	6.6778
7707.2	6.517
7708.7	6.8493
7710.3	8.4441
7711.8	10.614
7713.4	13.062
7714.9	16.421
7716.5	14.805
7718.0	9.1285
7719.5	7.1033
7721.1	7.0222
7722.6	6.9138
7724.2	6.2423
7725.7	6.2708
7727.3	6.6099
7728.8	7.0073
7730.3	6.9978
7731.9	6.7705
7733.4	6.5684
7735.0	6.4446
7736.5	6.3998
7738.0	6.5145
7739.6	6.9002
7741.1	6.5857
7742.7	6.1848
7744.2	5.7272
7745.8	6.0239
7747.3	7.0567
7748.8	6.991
7750.4	6.5621
7751.9	6.5495
7753.5	6.4838
7755.0	6.7529
7756.6	6.4321
7758.1	6.2838
7759.6	6.2806
7761.2	6.2519
7762.7	6.1595
7764.3	5.7523
7765.8	5.936
7767.4	5.9784
7768.9	6.7063
7770.4	5.8432
7772.0	5.4593
7773.5	6.1476
7775.1	5.7804
7776.6	5.852
7778.2	5.6122
7779.7	6.0129
7781.2	6.347
7782.8	5.952
7784.3	6.4592
7785.9	6.3162
7787.4	5.7312
7789.0	5.7249
7790.5	5.7531
7792.0	5.7938
7793.6	5.4315
7795.1	5.1383
7796.7	4.8889
7798.2	5.4432
7799.8	5.7473
7801.3	5.39
7802.8	5.1158
7804.4	5.0033
7805.9	5.0692
7807.5	5.2237
7809.0	5.6892
7810.6	5.596
7812.1	5.3818
7813.7	5.4291
7815.2	5.1422
7816.7	5.1833
7818.3	5.6806
7819.8	5.3934
7821.4	5.0619
7822.9	4.9926
7824.5	5.0882
7826.0	5.1184
7827.5	5.2688
7829.1	5.3449
7830.6	5.0735
7832.2	5.0
7833.7	4.8587
7835.3	5.0349
7836.8	5.5023
7838.3	5.5992
7839.9	5.6236
7841.4	5.3476
7843.0	5.733
7844.5	5.7545
7846.1	5.2091
7847.6	5.5702
7849.1	5.5315
7850.7	5.738
7852.2	5.4724
7853.8	5.2422
7855.3	5.65
7856.9	5.5741
7858.4	5.721
7860.0	5.8785
7861.5	5.595
7863.0	5.5224
7864.6	5.5385
7866.1	5.08
7867.7	4.8811
7869.2	5.3928
7870.8	5.5084
7872.3	5.5566
7873.8	5.3406
7875.4	5.6133
7876.9	5.8195
7878.5	5.3464
7880.0	5.4566
7881.6	5.758
7883.1	5.735
7884.6	5.0167
7886.2	5.194
7887.7	5.6372
7889.3	4.855
7890.8	5.371
7892.4	5.8561
7893.9	4.959
7895.5	5.0697
7897.0	5.278
7898.5	5.2307
7900.1	5.3918
7901.6	5.669
7903.2	5.4301
7904.7	5.1797
7906.3	5.5622
7907.8	5.7485
7909.4	5.7666
7910.9	5.431
7912.4	4.7771
7914.0	4.801
7915.5	4.8434
7917.1	5.1652
7918.6	5.1166
7920.2	4.9217
7921.7	4.9331
7923.2	5.1922
7924.8	5.4588
7926.3	5.1816
7927.9	5.0842
7929.4	4.9997
7931.0	4.757
7932.5	5.1711
7934.1	5.061
7935.6	4.9049
7937.1	5.5289
7938.7	5.7826
7940.2	5.8391
7941.8	6.2599
7943.3	5.9125
7944.9	5.7202
7946.4	6.1817
7948.0	5.8432
7949.5	5.2737
7951.0	5.1951
7952.6	5.5998
7954.1	5.4415
7955.7	5.5947
7957.2	5.639
7958.8	5.899
7960.3	6.084
7961.8	6.4885
7963.4	6.1811
7964.9	5.5701
7966.5	5.9708
7968.0	6.2275
7969.6	5.76
7971.1	5.5843
7972.7	6.0177
7974.2	6.4293
7975.7	5.895
7977.3	5.8832
7978.8	5.5538
7980.4	5.3847
7981.9	5.7622
7983.5	5.4169
7985.0	5.6093
7986.6	5.973
7988.1	6.0572
7989.6	5.726
7991.2	5.9986
7992.7	6.3293
7994.3	5.5429
7995.8	6.0421
7997.4	6.1697
7998.9	5.6288
8000.5	6.1086
8002.0	6.4839
8003.5	6.4997
8005.1	6.1533
8006.6	6.209
8008.2	6.3843
8009.7	6.5449
8011.3	6.7215
8012.8	6.2278
8014.4	6.2691
8015.9	6.2123
8017.4	5.8767
8019.0	5.6271
8020.5	5.7453
8022.1	6.3934
8023.6	6.5835
8025.2	6.5224
8026.7	6.1044
8028.3	6.3186
8029.8	6.7335
8031.3	6.7743
8032.9	6.4008
8034.4	6.2398
8036.0	6.2169
8037.5	6.4306
8039.1	6.3313
8040.6	6.4001
8042.2	5.938
8043.7	6.4768
8045.3	6.7661
8046.8	6.6748
8048.3	6.7064
8049.9	6.105
8051.4	6.417
8053.0	6.5085
8054.5	6.076
8056.1	6.4344
8057.6	6.7678
8059.2	6.5217
8060.7	6.3784
8062.2	6.4209
8063.8	6.2143
8065.3	6.2061
8066.9	6.3543
8068.4	6.4011
8070.0	6.302
8071.5	6.6137
8073.1	6.636
8074.6	6.3228
8076.1	6.1705
8077.7	6.5028
8079.2	6.6139
8080.8	6.6838
8082.3	6.5114
8083.9	6.3082
8085.4	6.6596
8087.0	6.7496
8088.5	6.6649
8090.1	6.7313
8091.6	6.7631
8093.1	6.7175
8094.7	6.5648
8096.2	6.4812
8097.8	6.296
8099.3	6.5747
8100.9	6.9114
8102.4	7.0194
8104.0	7.1509
8105.5	6.8698
8107.1	6.8885
8108.6	6.9543
8110.1	6.5639
8111.7	6.6677
8113.2	6.4656
8114.8	6.5344
8116.3	6.9683
8117.9	6.8992
8119.4	6.6906
8121.0	6.5397
8122.5	6.8328
8124.0	6.9674
8125.6	7.1484
8127.1	6.661
8128.7	6.5095
8130.2	6.8055
8131.8	6.8105
8133.3	6.5902
8134.9	6.9054
8136.4	6.9268
8138.0	6.3896
8139.5	6.0488
8141.0	6.6807
8142.6	6.725
8144.1	6.7051
8145.7	6.7538
8147.2	6.6241
8148.8	6.6344
8150.3	6.4928
8151.9	6.4598
8153.4	6.391
8155.0	6.6168
8156.5	6.8414
8158.0	6.7366
8159.6	6.6808
8161.1	6.3225
8162.7	6.5907
8164.2	6.4007
8165.8	6.4659
8167.3	6.3923
8168.9	6.3508
8170.4	6.9289
8172.0	6.8243
8173.5	6.7036
8175.0	6.4506
8176.6	5.8042
8178.1	5.3437
8179.7	5.5066
8181.2	6.2635
8182.8	5.9732
8184.3	6.475
8185.9	6.9663
8187.4	6.6738
8189.0	6.2837
8190.5	5.7723
8192.0	5.8507
8193.6	6.8665
8195.1	6.7323
8196.7	6.5083
8198.2	6.2993
8199.8	6.4007
8201.3	6.5453
8202.9	6.1799
8204.4	6.4945
8206.0	6.4606
8207.5	6.7022
8209.1	6.6702
8210.6	6.4875
8212.1	6.0858
8213.7	6.3499
8215.2	6.7485
8216.8	6.2539
8218.3	6.6351
8219.9	6.8062
8221.4	6.25
8223.0	6.6073
8224.5	5.7769
8226.1	5.4846
8227.6	4.8242
8229.1	4.4243
8230.7	5.0573
8232.2	5.7163
8233.8	5.7859
8235.3	5.9365
8236.9	6.5264
8238.4	6.7072
8240.0	6.454
8241.5	6.5044
8243.1	6.3595
8244.6	6.2012
8246.2	6.3473
8247.7	6.6135
8249.2	6.5119
8250.8	5.8397
8252.3	5.9005
8253.9	6.0712
8255.4	6.3139
8257.0	6.179
8258.5	5.4558
8260.1	5.9303
8261.6	6.6392
8263.2	6.3807
8264.7	6.2537
8266.2	5.9077
8267.8	6.026
8269.3	6.2439
8270.9	6.1422
8272.4	6.3447
8274.0	6.2
8275.5	5.6206
8277.1	5.3492
8278.6	5.3905
8280.2	5.4787
8281.7	5.8375
8283.3	6.2281
8284.8	6.3999
8286.3	5.9294
8287.9	6.3066
8289.4	6.8791
8291.0	6.197
8292.5	5.495
8294.1	5.1934
8295.6	5.6638
8297.2	6.222
8298.7	6.4526
8300.3	6.1505
8301.8	5.7325
8303.4	5.9702
8304.9	5.5602
8306.4	5.1267
8308.0	5.6517
8309.5	6.3759
8311.1	6.2397
8312.6	5.3515
8314.2	6.0015
8315.7	6.5384
8317.3	5.6968
8318.8	5.5553
8320.4	6.0683
8321.9	5.7433
8323.5	5.6907
8325.0	5.9183
8326.5	6.0092
8328.1	6.0721
8329.6	6.0792
8331.2	6.1068
8332.7	6.229
8334.3	6.0399
8335.8	5.6433
8337.4	5.6264
8338.9	5.6871
8340.5	5.5382
8342.0	6.1616
8343.6	5.6911
8345.1	5.1728
8346.7	4.1454
8348.2	4.3304
8349.7	5.1606
8351.3	5.248
8352.8	6.1483
8354.4	5.6344
8355.9	4.9525
8357.5	4.9617
8359.0	5.1131
8360.6	5.3739
8362.1	4.9935
8363.7	5.1762
8365.2	5.7969
8366.8	5.6312
8368.3	5.2493
8369.9	5.2021
8371.4	5.5152
8372.9	5.2374
8374.5	4.9467
8376.0	5.5585
8377.6	5.7584
8379.1	5.9252
8380.7	6.2539
8382.2	5.8856
8383.8	5.5261
8385.3	5.5021
8386.9	4.9716
8388.4	4.4137
8390.0	4.5725
8391.5	5.3996
8393.0	5.5573
8394.6	5.1519
8396.1	5.0212
8397.7	5.2747
8399.2	6.3406
8400.8	6.6824
8402.3	5.6936
8403.9	5.1159
8405.4	5.6698
8407.0	5.3335
8408.5	4.9053
8410.1	5.4366
8411.6	5.3945
8413.2	5.4373
8414.7	5.6747
8416.2	5.3569
8417.8	5.3719
8419.3	5.6715
8420.9	5.4908
8422.4	5.3694
8424.0	5.5893
8425.5	5.7332
8427.1	5.7749
8428.6	5.3286
8430.2	5.5059
8431.7	5.533
8433.3	4.6806
8434.8	4.8859
8436.4	5.3142
8437.9	5.6138
8439.5	5.3299
8441.0	5.0674
8442.5	5.6038
8444.1	5.8197
8445.6	5.7203
8447.2	5.4408
8448.7	5.489
8450.3	5.1933
8451.8	5.6493
8453.4	5.7509
8454.9	4.9628
8456.5	4.8308
8458.0	5.4829
8459.6	5.6657
8461.1	5.2227
8462.7	4.9523
8464.2	4.8238
8465.7	5.1698
8467.3	5.6334
8468.8	5.1213
8470.4	4.8976
8471.9	5.2919
8473.5	4.9096
8475.0	5.0572
8476.6	5.4228
8478.1	5.4307
8479.7	5.0283
8481.2	4.8497
8482.8	4.9027
8484.3	4.854
8485.9	4.9039
8487.4	4.7753
8489.0	4.5289
8490.5	4.5205
8492.0	4.7039
8493.6	4.9768
8495.1	4.6119
8496.7	4.6285
8498.2	4.6507
8499.8	4.7836
8501.3	5.0209
8502.9	4.7949
8504.4	4.9465
8506.0	4.5852
8507.5	5.0802
8509.1	5.188
8510.6	4.8048
8512.2	4.988
8513.7	4.9762
8515.3	4.8958
8516.8	4.6778
8518.3	4.7076
8519.9	4.9049
8521.4	4.7553
8523.0	4.6312
8524.5	4.5306
8526.1	4.3014
8527.6	4.5571
8529.2	4.7083
8530.7	4.7664
8532.3	4.921
8533.8	5.2493
8535.4	4.6188
8536.9	4.4459
8538.5	4.8247
8540.0	4.9074
8541.6	4.675
8543.1	4.4213
8544.7	4.4672
8546.2	4.2405
8547.7	4.4507
8549.3	5.3096
8550.8	4.7581
8552.4	4.4624
8553.9	4.2342
8555.5	4.168
8557.0	4.3184
8558.6	4.2425
8560.1	3.8791
8561.7	4.1541
8563.2	3.9989
8564.8	4.3265
8566.3	4.6639
8567.9	4.4683
8569.4	4.7832
8571.0	4.7094
8572.5	4.2948
8574.1	4.1446
8575.6	4.4278
8577.1	4.2801
8578.7	4.1692
8580.2	3.9402
8581.8	4.1939
8583.3	4.5048
8584.9	4.1232
8586.4	4.2239
8588.0	4.4023
8589.5	4.2917
8591.1	4.0856
8592.6	4.0347
8594.2	4.0125
8595.7	4.1778
8597.3	4.3462
8598.8	4.525
8600.4	4.3643
8601.9	3.9794
8603.5	3.8033
8605.0	4.2098
8606.5	4.3071
8608.1	4.4883
8609.6	4.7
8611.2	4.3857
8612.7	4.4719
8614.3	3.9909
8615.8	4.4894
8617.4	5.016
8618.9	4.8757
8620.5	5.0252
8622.0	4.5811
8623.6	4.4969
8625.1	4.6708
8626.7	5.1635
8628.2	5.3364
8629.8	4.7312
8631.3	4.583
8632.9	5.1895
8634.4	5.1502
8635.9	4.9154
8637.5	4.722
8639.0	4.6074
8640.6	4.0814
8642.1	4.5724
8643.7	4.8106
8645.2	4.6634
8646.8	4.9232
8648.3	5.1131
8649.9	4.783
8651.4	4.1703
8653.0	4.6377
8654.5	4.7829
8656.1	4.7723
8657.6	5.7467
8659.2	5.3348
8660.7	4.6657
8662.3	4.8161
8663.8	4.8249
8665.4	4.402
8666.9	3.8407
8668.4	4.3631
8670.0	4.6514
8671.5	4.828
8673.1	5.5096
8674.6	5.1619
8676.2	4.7377
8677.7	4.0192
8679.3	4.1243
8680.8	4.0042
8682.4	4.1667
8683.9	4.5847
8685.5	3.9625
8687.0	4.2347
8688.6	4.4402
8690.1	4.5559
8691.7	4.6836
8693.2	4.3618
8694.8	4.3513
8696.3	4.3285
8697.9	4.3291
8699.4	4.1043
8700.9	4.3631
8702.5	4.6555
8704.0	4.7102
8705.6	4.7813
8707.1	4.6209
8708.7	4.765
8710.2	4.7804
8711.8	4.5126
8713.3	4.3509
8714.9	4.3285
8716.4	4.2469
8718.0	4.2166
8719.5	4.6047
8721.1	4.2589
8722.6	4.4652
8724.2	4.5899
8725.7	4.5483
8727.3	5.0811
8728.8	4.6446
8730.4	4.5686
8731.9	4.5087
8733.5	4.393
8735.0	4.6915
8736.5	4.5045
8738.1	4.4837
8739.6	4.5417
8741.2	4.7477
8742.7	4.9395
8744.3	5.1528
8745.8	4.8786
8747.4	4.9098
8748.9	5.4419
8750.5	5.0546
8752.0	5.0094
8753.6	4.988
8755.1	4.9321
8756.7	5.2381
8758.2	5.2564
8759.8	4.965
8761.3	5.3814
8762.9	5.5973
8764.4	6.0825
8766.0	5.7627
8767.5	5.1106
8769.1	5.238
8770.6	4.9591
8772.1	5.3353
8773.7	5.207
8775.2	5.4814
8776.8	5.1349
8778.3	4.5089
8779.9	5.1418
8781.4	5.6539
8783.0	5.2481
8784.5	4.8273
8786.1	5.1239
8787.6	5.2328
8789.2	5.0893
8790.7	5.1376
8792.3	5.4725
8793.8	5.6151
8795.4	5.209
8796.9	5.1866
8798.5	5.8111
8800.0	5.6369
8801.6	5.2064
8803.1	5.2748
8804.7	5.5034
8806.2	5.8773
8807.8	5.6114
8809.3	5.4954
8810.8	5.4563
8812.4	4.8399
8813.9	4.9903
8815.5	5.5733
8817.0	5.5873
8818.6	5.5559
8820.1	5.7939
8821.7	6.1333
8823.2	4.9755
8824.8	5.0445
8826.3	6.3617
8827.9	5.6793
8829.4	5.287
8831.0	6.1121
8832.5	6.258
8834.1	6.3092
8835.6	6.5224
8837.2	6.0501
8838.7	5.9076
8840.3	5.4369
8841.8	5.1124
8843.4	5.1879
8844.9	5.2741
8846.5	5.9347
8848.0	5.8063
8849.5	5.3713
8851.1	4.7911
8852.6	5.0208
8854.2	5.2775
8855.7	4.9062
8857.3	5.6042
8858.8	5.9426
8860.4	5.6517
8861.9	5.8707
8863.5	5.777
8865.0	5.5932
8866.6	5.7838
8868.1	5.7618
8869.7	5.6227
8871.2	5.2106
8872.8	5.546
8874.3	6.0317
8875.9	6.0948
8877.4	5.8562
8879.0	5.6909
8880.5	5.7063
8882.1	5.4436
8883.6	5.8579
8885.2	5.8795
8886.7	5.2556
8888.2	4.6587
8889.8	4.7491
8891.3	5.9094
8892.9	5.6926
8894.4	5.6054
8896.0	5.7731
8897.5	5.3564
8899.1	5.9481
8900.6	6.0686
8902.2	5.6276
8903.7	5.3203
8905.3	5.0934
8906.8	5.3623
8908.4	5.7205
8909.9	5.9953
8911.5	5.8947
8913.0	6.1718
8914.6	6.2391
8916.1	5.7605
8917.7	5.355
8919.2	5.374
8920.8	5.6426
8922.3	5.3358
8923.9	5.2312
8925.4	4.9565
8926.9	4.6749
8928.5	5.1885
8930.0	4.8336
8931.6	5.11
8933.1	5.8348
8934.7	5.6925
8936.2	6.1304
8937.8	6.0132
8939.3	5.9235
8940.9	6.0111
8942.4	6.075
8944.0	6.0589
8945.5	5.4353
8947.1	5.2222
8948.6	5.4676
8950.2	6.0032
8951.7	5.7166
8953.3	5.7237
8954.8	6.2068
8956.4	5.5
8957.9	5.8976
8959.5	6.184
8961.0	5.7097
8962.6	5.3574
8964.1	4.8905
8965.7	5.4536
8967.2	6.0196
8968.7	5.696
8970.3	5.277
8971.8	5.2474
8973.4	5.2289
8974.9	5.1233
8976.5	5.5244
8978.0	5.6924
8979.6	5.4991
8981.1	5.1016
8982.7	5.1967
8984.2	5.9944
8985.8	5.5831
8987.3	4.8454
8988.9	4.6618
8990.4	4.8587
8992.0	5.2951
8993.5	5.5226
8995.1	5.565
8996.6	6.4019
8998.2	6.5349
8999.7	5.4888
9001.3	5.4
9002.8	5.6001
9004.4	5.2908
9005.9	4.9747
9007.5	5.193
9009.0	5.5861
9010.5	5.3084
9012.1	5.0126
9013.6	5.5204
9015.2	5.2143
9016.7	5.152
9018.3	5.3786
9019.8	5.179
9021.4	5.7286
9022.9	5.9145
9024.5	5.3653
9026.0	5.2154
9027.6	5.2745
9029.1	5.6414
9030.7	5.7536
9032.2	6.0505
9033.8	5.9562
9035.3	5.6937
9036.9	5.541
9038.4	5.7672
9040.0	6.047
9041.5	5.5355
9043.1	5.3734
9044.6	5.1603
9046.2	5.4954
9047.7	5.934
9049.3	5.8951
9050.8	5.8319
9052.3	4.9622
9053.9	4.6647
9055.4	5.3556
9057.0	5.3956
9058.5	5.6811
9060.1	5.5956
9061.6	5.2792
9063.2	5.4521
9064.7	5.6003
9066.3	5.5649
9067.8	5.4208
9069.4	5.4769
9070.9	5.0503
9072.5	5.0962
9074.0	5.4741
9075.6	5.4209
9077.1	5.3429
9078.7	4.8259
9080.2	4.835
9081.8	4.9369
9083.3	4.6783
9084.9	5.05
9086.4	5.1102
9088.0	5.2986
9089.5	5.7432
9091.1	5.9141
9092.6	5.7364
9094.1	5.0624
9095.7	5.211
9097.2	5.2607
9098.8	5.2684
9100.3	5.3095
9101.9	5.4445
9103.4	5.4551
9105.0	4.8583
9106.5	5.0444
9108.1	4.8615
9109.6	4.8547
9111.2	5.6467
9112.7	5.5975
9114.3	5.528
9115.8	5.0342
9117.4	4.7958
9118.9	5.0093
9120.5	5.3891
9122.0	5.7033
9123.6	5.6079
9125.1	5.7723
9126.7	5.5349
9128.2	5.0133
9129.8	4.9241
9131.3	4.4715
9132.8	4.3391
9134.4	4.4522
9135.9	4.5864
9137.5	4.5764
9139.0	4.5785
9140.6	5.59
9142.1	5.46
9143.7	5.6543
9145.2	5.8695
9146.8	5.535
9148.3	5.944
9149.9	5.8573
9151.4	5.0091
9153.0	4.3362
9154.5	4.5247
9156.1	4.7638
9157.6	5.2284
9159.2	5.3379
9160.7	5.6016
9162.3	6.3404
9163.8	5.9315
9165.4	5.6088
9166.9	5.2597
9168.5	4.8728
9170.0	5.0173
9171.6	4.4506
9173.1	4.4614
9174.6	4.5409
9176.2	4.2034
9177.7	4.5272
9179.3	4.7109
9180.8	5.009
9182.4	5.0832
9183.9	4.7011
9185.5	4.8711
9187.0	5.2959
9188.6	5.5361
9190.1	5.1572
9191.7	5.127
9193.2	4.5598
9194.8	4.4567
9196.3	4.7912
9197.9	4.4721
9199.4	5.2489
9201.0	5.2413
9202.5	4.6757
9204.1	4.9076
9205.6	4.2574
9207.2	4.5203
9208.7	4.4607
9210.3	4.8408
9211.8	4.9975
9213.3	4.512
9214.9	4.3819
9216.4	4.4645
9218.0	4.3602
9219.5	4.7386
9221.1	4.6334
9222.6	4.4552
9224.2	4.0852
9225.7	4.6029
9227.3	4.7798
9228.8	4.2044
9230.4	4.4219
9231.9	4.2481
9233.5	4.6961
9235.0	4.3849
9236.6	4.206
9238.1	4.7356
9239.7	4.3867
9241.2	4.5066
9242.8	4.3851
9244.3	4.2144
9245.9	3.776
9247.4	3.6204
9249.0	3.9463
9250.5	3.9158
9252.0	3.7673
9253.6	3.8908
9255.1	4.5359
9256.7	4.4956
9258.2	4.2541
9259.8	3.7351
9261.3	3.2728
9262.9	4.0551
9264.4	4.3934
9266.0	4.4701
9267.5	4.1792
9269.1	3.8181
9270.6	4.1307
9272.2	4.2095
9273.7	4.167
9275.3	3.7745
9276.8	3.4782
9278.4	3.6472
9279.9	3.4056
9281.5	3.6516
9283.0	3.6193
9284.6	3.851
9286.1	3.4423
9287.6	3.8726
9289.2	4.4158
9290.7	3.751
9292.3	3.98
9293.8	4.0408
9295.4	3.8605
9296.9	3.559
9298.5	3.1573
9300.0	3.456
9301.6	3.3847
9303.1	3.6728
9304.7	3.2412
9306.2	2.969
9307.8	3.2561
9309.3	2.9918
9310.9	3.6231
9312.4	3.9157
9314.0	4.0036
9315.5	4.4721
9317.1	3.5821
9318.6	3.3182
9320.2	3.5006
9321.7	3.9064
9323.2	4.8879
9324.8	3.2968
9326.3	3.6921
9327.9	3.9041
9329.4	3.9846
9331.0	3.9716
9332.5	2.956
9334.1	3.5232
9335.6	3.9854
9337.2	2.8862
9338.7	3.1493
9340.3	3.3928
9341.8	4.1389
9343.4	3.9528
9344.9	3.167
9346.5	3.3635
9348.0	3.4351
9349.6	2.9562
9351.1	2.9222
9352.7	4.3847
9354.2	3.9955
9355.7	4.0023
9357.3	3.5807
9358.8	3.3141
9360.4	4.1069
9361.9	3.2597
9363.5	3.5639
9365.0	3.4094
9366.6	3.1446
9368.1	4.0783
9369.7	3.7584
9371.2	4.2669
9372.8	4.9656
9374.3	4.1728
9375.9	3.2863
9377.4	3.4995
9379.0	5.2296
9380.5	5.266
9382.1	4.0566
9383.6	3.4867
9385.2	3.8916
9386.7	4.3294
9388.2	3.9937
9389.8	4.0385
9391.3	4.1498
9392.9	3.8728
9394.4	4.042
9396.0	3.8101
9397.5	4.1063
9399.1	4.0555
9400.6	3.5448
9402.2	3.9356
9403.7	4.0264
9405.3	3.335
9406.8	3.4801
9408.4	3.3863
9409.9	3.7263
9411.5	3.8487
9413.0	3.5501
9414.6	4.369
9416.1	4.0322
9417.7	3.0695
9419.2	3.8233
9420.7	3.8915
9422.3	3.2363
9423.8	3.6953
9425.4	3.886
9426.9	4.0369
9428.5	3.9832
9430.0	4.069
9431.6	3.8363
9433.1	3.805
9434.7	4.0183
9436.2	3.4376
9437.8	3.0829
9439.3	4.0824
9440.9	3.9065
9442.4	3.9381
9444.0	3.0865
9445.5	3.5962
9447.1	3.6047
9448.6	4.1847
9450.1	4.1569
9451.7	3.8787
9453.2	3.6137
9454.8	3.6848
9456.3	3.0576
9457.9	3.0015
9459.4	4.0478
9461.0	4.3071
9462.5	3.5744
9464.1	3.1937
9465.6	3.2309
9467.2	3.7424
9468.7	3.7859
9470.3	3.8506
9471.8	3.8198
9473.4	3.2323
9474.9	4.5249
9476.5	4.2387
9478.0	2.6797
9479.5	3.6072
9481.1	4.4462
9482.6	4.9054
9484.2	3.8328
9485.7	4.6251
9487.3	4.1296
9488.8	3.4618
9490.4	3.9727
9491.9	3.5299
9493.5	4.843
9495.0	4.6465
9496.6	4.3548
9498.1	4.2757
9499.7	4.7599
9501.2	5.751
9502.8	6.6531
9504.3	5.1483
9505.8	4.1629
9507.4	3.9901
9508.9	4.1942
9510.5	3.8445
9512.0	3.7279
9513.6	3.6196
9515.1	3.3979
9516.7	4.4613
9518.2	5.2647
9519.8	5.304
9521.3	4.4992
9522.9	4.5253
9524.4	4.457
9526.0	4.2773
9527.5	4.0396
9529.1	3.8357
9530.6	3.8491
9532.2	3.8425
9533.7	4.4565
9535.2	4.4329
9536.8	3.8001
9538.3	4.579
9539.9	3.9783
9541.4	4.347
9543.0	4.9151
9544.5	3.9741
9546.1	3.5408
9547.6	3.6372
9549.2	4.7743
9550.7	4.2496
9552.3	4.0808
9553.8	4.5746
9555.4	4.2312
9556.9	3.661
9558.4	4.3357
9560.0	4.3013
9561.5	3.669
9563.1	4.2094
9564.6	4.4929
9566.2	3.9093
9567.7	3.8567
9569.3	4.2136
9570.8	4.2528
9572.4	4.418
9573.9	3.5537
9575.5	4.3208
9577.0	4.4153
9578.6	3.6771
9580.1	4.7775
9581.7	3.4675
9583.2	4.3672
9584.7	3.869
9586.3	3.6063
9587.8	3.6681
9589.4	4.3281
9590.9	3.5024
9592.5	3.6317
9594.0	3.9926
9595.6	3.7205
9597.1	4.2186
9598.7	4.3745
9600.2	3.629
9601.8	4.2002
9603.3	4.0756
9604.9	3.553
9606.4	3.9712
9607.9	3.8306
9609.5	4.6388
9611.0	4.1096
9612.6	4.0931
9614.1	4.2101
9615.7	4.3828
9617.2	4.5644
9618.8	3.9336
9620.3	3.5039
9621.9	4.6193
9623.4	4.9834
9625.0	4.6327
9626.5	4.6277
9628.1	4.4231
9629.6	3.6553
9631.1	3.9899
9632.7	3.8517
9634.2	4.3383
9635.8	4.3399
9637.3	3.8616
9638.9	4.4992
9640.4	3.5591
9642.0	3.382
9643.5	4.7125
9645.1	4.0074
9646.6	3.9255
9648.2	4.1014
9649.7	4.3341
9651.2	4.0362
9652.8	4.2696
9654.3	4.0397
9655.9	3.4742
9657.4	3.9826
9659.0	4.3401
9660.5	4.7742
9662.1	3.2677
9663.6	4.1889
9665.2	4.8501
9666.7	3.5364
9668.3	4.3219
9669.8	4.1503
9671.4	3.8103
9672.9	4.6753
9674.4	4.0962
9676.0	4.1038
9677.5	4.5428
9679.1	3.9246
9680.6	5.1827
9682.2	5.1545
9683.7	4.8622
9685.3	4.2239
9686.8	4.3482
9688.4	4.5996
9689.9	4.7841
9691.5	4.4927
9693.0	3.9908
9694.5	4.4965
9696.1	4.3019
9697.6	4.1656
9699.2	4.2809
9700.7	3.6857
9702.3	4.6511
9703.8	4.1041
9705.4	4.2222
9706.9	4.3217
9708.5	4.0236
9710.0	4.8086
9711.6	4.2137
9713.1	4.8897
9714.6	3.839
9716.2	4.4115
9717.7	4.9778
9719.3	4.6109
9720.8	4.1426
9722.4	4.1063
9723.9	4.0672
9725.5	3.7171
9727.0	4.1922
9728.6	4.7803
9730.1	4.5516
9731.6	4.0267
9733.2	4.6633
9734.7	4.4836
9736.3	4.0274
9737.8	3.7727
9739.4	3.88
9740.9	4.7726
9742.5	3.991
9744.0	4.0265
9745.6	4.3434
9747.1	4.2748
9748.7	3.4822
9750.2	3.4389
9751.7	3.7895
9753.3	4.2443
9754.8	3.91
9756.4	3.8486
9757.9	4.0763
9759.5	3.8684
9761.0	4.252
9762.6	3.9036
9764.1	3.7481
9765.7	4.3011
9767.2	4.638
9768.7	4.8573
9770.3	3.9426
9771.8	4.7517
9773.4	4.5232
9774.9	4.408
9776.5	3.8791
9778.0	3.6808
9779.6	4.2899
9781.1	3.5079
9782.7	4.4672
9784.2	4.6329
9785.7	3.7412
9787.3	3.805
9788.8	4.8299
9790.4	5.4786
9791.9	4.6967
9793.5	4.32
9795.0	3.9045
9796.6	4.3431
9798.1	3.5242
9799.7	3.5598
9801.2	3.7555
9802.7	4.0844
9804.3	4.309
9805.8	6.7619
9807.4	5.4678
9808.9	4.446
9810.5	4.175
9812.0	3.8025
9813.6	4.2355
9815.1	3.9361
9816.7	3.9224
9818.2	4.2132
9819.7	4.0265
9821.3	4.6735
9822.8	4.0111
9824.4	4.0207
9825.9	4.0317
9827.5	4.5297
9829.0	5.0287
9830.6	5.0635
9832.1	4.1307
9833.7	4.1037
9835.2	3.8261
9836.7	3.8594
9838.3	3.7346
9839.8	4.1525
9841.4	3.6175
9842.9	4.11
9844.5	4.0461
9846.0	4.0956
9847.6	4.1547
9849.1	4.3616
9850.7	5.3888
9852.2	3.5699
9853.7	3.4608
9855.3	4.3181
9856.8	4.3853
9858.4	4.4524
9859.9	4.5045
9861.5	4.3074
9863.0	4.0683
9864.6	3.5673
9866.1	4.0574
9867.6	4.4757
9869.2	4.8853
9870.7	4.8975
9872.3	3.665
9873.8	2.7794
9875.4	2.4382
9876.9	3.2149
9878.5	2.9013
9880.0	3.2918
9881.5	3.0366
9883.1	4.1238
9884.6	3.4933
9886.2	3.8077
9887.7	4.5269
9889.3	3.9405
9890.8	3.9325
9892.4	3.8975
9893.9	4.1386
9895.5	4.2947
9897.0	4.4762
9898.5	4.0635
9900.1	3.4652
9901.6	3.5821
9903.2	4.2584
9904.7	4.017
9906.3	3.1589
9907.8	3.198
9909.4	4.6219
9910.9	4.5851
9912.4	4.1229
9914.0	5.4249
9915.5	5.4764
9917.1	4.6967
9918.6	2.8429
9920.2	2.6165
9921.7	4.2491
9923.3	3.7363
9924.8	4.1283
9926.3	4.2901
9927.9	4.5277
9929.4	3.9258
9931.0	3.6465
9932.5	3.9906
9934.1	2.8155
9935.6	4.5149
9937.2	4.4973
9938.7	4.3893
9940.2	3.2379
9941.8	2.3591
9943.3	3.7523
9944.9	3.7194
9946.4	3.3587
9948.0	3.5398
9949.5	4.0846
9951.1	4.4756
9952.6	2.5744
9954.1	3.8072
9955.7	3.9744
9957.2	3.5468
9958.8	3.9058
9960.3	4.1286
9961.9	4.6934
9963.4	4.6239
9964.9	3.4284
9966.5	4.2828
9968.0	5.0545
9969.6	4.2309
9971.1	4.2023
9972.7	3.3021
9974.2	3.6647
9975.8	4.1199
9977.3	3.9305
9978.8	3.4302
9980.4	4.0504
9981.9	3.7859
9983.5	4.2226
9985.0	3.4432
9986.6	3.0258
9988.1	3.2131
9989.7	3.605
9991.2	4.1291
9992.7	3.9457
9994.3	4.2614
9995.8	3.7653
9997.4	4.0378
9998.9	4.2742
10000.0	4.1329
10002.0	5.3161
10004.0	4.4048
10005.0	4.0332
10007.0	4.156
10008.0	3.9364
10010.0	3.3315
10011.0	3.9656
10013.0	2.3816
10014.0	3.9035
10016.0	3.3244
10017.0	1.6238
10019.0	2.7568
10021.0	3.8187
10022.0	2.7367
10024.0	3.8989
10025.0	4.1661
10027.0	2.707
10028.0	3.2939
10030.0	3.8848
10031.0	3.3677
10033.0	3.8454
10034.0	3.1666
10036.0	3.0381
10038.0	3.3265
10039.0	3.4586
10041.0	3.2598
10042.0	3.4022
10044.0	3.291
10045.0	4.3316
10047.0	4.778
10048.0	2.4276
10050.0	3.0692
10051.0	3.6594
10053.0	3.1027
10054.0	3.2231
10056.0	2.3271
10058.0	3.0486
10059.0	3.1027
10061.0	4.3744
10062.0	4.3035
10064.0	2.6684
10065.0	2.6822
10067.0	3.1617
10068.0	3.4006
10070.0	3.9717
10071.0	4.2177
10073.0	3.8307
10075.0	3.4923
10076.0	3.7899
10078.0	3.7505
10079.0	3.9045
10081.0	4.3985
10082.0	4.3298
10084.0	3.9098
10085.0	3.1795
10087.0	3.2492
10088.0	3.2814
10090.0	2.8575
10092.0	3.8656
10093.0	2.4447
10095.0	2.6658
10096.0	2.3149
10098.0	2.6442
10099.0	3.2847
10101.0	3.8855
10102.0	4.4669
10104.0	3.2275
10105.0	1.7712
10107.0	4.9304
10108.0	4.7939
10110.0	3.8888
10112.0	3.9392
10113.0	3.7479
10115.0	4.0335
10116.0	2.9937
10118.0	4.4236
10119.0	3.8691
10121.0	4.5127
10122.0	5.5764
10124.0	3.5371
10125.0	2.4281
10127.0	1.923
10129.0	3.914
10130.0	3.9062
10132.0	2.7574
10133.0	3.779
10135.0	2.8027
10136.0	3.0625
10138.0	2.7455
10139.0	4.2415
10141.0	3.062
10142.0	3.3316
10144.0	4.1881
10146.0	2.7655
10147.0	3.0773
10149.0	3.7755
10150.0	2.6763
10152.0	2.6672
10153.0	0.89833
10155.0	3.9128
10156.0	2.2665
10158.0	1.7167
10159.0	1.5581
10161.0	2.6849
10162.0	3.5937
10164.0	2.3114
10166.0	4.2384
10167.0	4.4794
10169.0	3.9854
10170.0	4.4104
10172.0	5.0429
10173.0	2.0443
10175.0	1.2718
10176.0	2.7125
10178.0	4.3218
10179.0	3.8973
10181.0	4.3611
10183.0	3.2294
10184.0	2.9626
10186.0	3.3901
10187.0	3.4719
10189.0	4.0044
10190.0	1.4672
10192.0	5.248
10193.0	3.8285
10195.0	3.2161
10196.0	2.646
10198.0	2.2487
10199.0	2.0469
10201.0	2.5934
10203.0	4.2234
10204.0	0.72204
10206.0	2.4196
10207.0	3.9027
10209.0	2.711
10210.0	0.55383
10212.0	0.10642
10213.0	2.2513
10215.0	1.7247
10216.0	2.6186
10218.0	2.9324
10220.0	2.6871
10221.0	4.6405
10223.0	3.5912
10224.0	2.3119
10226.0	2.8844
10227.0	1.0834
10229.0	4.0518
10230.0	4.6925
10232.0	3.464
10233.0	3.4075
10235.0	3.0962
10236.0	4.4789
10238.0	2.8929
10240.0	3.8774
10241.0	4.9664
10243.0	2.886
10244.0	3.248
10246.0	2.9088
10247.0	3.2812
10249.0	2.5711
10250.0	2.1932
10252.0	2.3916
10253.0	1.2477
10255.0	5.2089
10256.0	4.771
10258.0	4.3606
10260.0	4.1177
10261.0	2.4128
10263.0	2.9712
10264.0	1.7004
10266.0	3.4009
10267.0	3.2732
10269.0	2.5772
10270.0	4.0151
10272.0	3.707
10273.0	0.80866
10275.0	2.1236
10277.0	5.0843
10278.0	5.2838
10280.0	2.2445
10281.0	3.0088
10283.0	6.108
10284.0	6.2969
10286.0	3.4532
10287.0	3.5716
10289.0	9.0433
10290.0	2.7131
10292.0	0.34009
10293.0	5.8712
10295.0	5.652
10297.0	4.9786
10298.0	3.3744
10300.0	4.4637
10301.0	4.192
10303.0	4.4272
10304.0	2.0912
10306.0	-0.46541
10307.0	1.1692
10309.0	0.53895
10310.0	1.8523
10312.0	1.497
10313.0	5.6095
10315.0	5.1278
10317.0	0.63986
10318.0	-0.36737
10320.0	-0.65575
10321.0	2.0716
10323.0	1.6243
10324.0	0.96858
10326.0	3.5221
10327.0	3.0366
10329.0	3.3154
10330.0	0.58928
10332.0	2.1383
10334.0	3.3006
10335.0	0.80582
10337.0	2.8986
10338.0	5.2493
10340.0	3.3297
10341.0	0.048281
10343.0	5.2835
10344.0	8.0882
10346.0	8.1006
10347.0	9.2506
10349.0	4.712
10350.0	3.6933
10352.0	-0.66739
10354.0	-0.46474
10355.0	7.745
10357.0	4.0518
10358.0	2.842
10360.0	4.8305
10361.0	0.87999
10363.0	4.4365
10364.0	3.7522
10366.0	6.4297
10367.0	3.4788
10369.0	1.4899
10370.0	6.9076
10372.0	-0.76962
10374.0	4.2095
10375.0	4.0479
10377.0	3.4624
10378.0	7.2537
10380.0	1.2443
10381.0	1.0952
10383.0	3.7041
10384.0	4.6367
10386.0	-0.3292
10387.0	1.088
10389.0	3.4923
10390.0	1.5517
10392.0	1.3553
10394.0	-1.826
10395.0	0.86455
10397.0	2.8881
10398.0	1.7487
10400.0	3.9809
10401.0	0.99788
10403.0	0.23777
10404.0	0.27932
10406.0	0.070315
10407.0	1.7873
10409.0	-4.1221
10410.0	-2.0965
10412.0	2.3874
10414.0	0.59683
10415.0	1.1791
10417.0	3.3924
10418.0	6.9867
10420.0	5.7741
10421.0	2.6628
10423.0	0.048134
10424.0	0.65199
10426.0	1.5378
10427.0	3.1941
10429.0	4.5399
10430.0	0.76023
10432.0	1.5033
10434.0	-0.40405
10435.0	-0.0077018
10437.0	1.718
10438.0	2.5943
10440.0	6.0051
10441.0	0.1902
10443.0	-0.15685
10444.0	2.3075
10446.0	3.6077
10447.0	6.9717
10449.0	4.1114
10450.0	3.3789
10452.0	2.4208
10454.0	4.7826
10455.0	5.1751
10457.0	-1.663
10458.0	1.6131
10460.0	1.8912
10461.0	0.63741
10463.0	2.8041
10464.0	0.31401
10466.0	4.154
10467.0	1.5221
10469.0	-0.46907
10470.0	1.8743
10472.0	1.7823
10474.0	5.9589
10475.0	2.9315
10477.0	3.524
10478.0	1.3108
10480.0	-2.4517
10481.0	4.9722
10483.0	4.2853
10484.0	4.9955
10486.0	3.7754
10487.0	-0.44363
10489.0	-1.1096
10490.0	-2.8197
10492.0	0.71269
10494.0	-3.7806
10495.0	-1.6172
10497.0	3.2376
10498.0	-0.86224
