WAVE,FLUX,ERR,BGFLUX
5977.618,4.6551038E-15,2.2087435E-17,1.349839E-16
5981.8296,4.6478045E-15,2.2065473E-17,1.3492275E-16
5986.041,4.6183015E-15,2.1987162E-17,1.3401422E-16
5990.2524,4.5893E-15,2.1902813E-17,1.3401655E-16
5994.464,4.5216626E-15,2.1734865E-17,1.3218848E-16
5998.6753,4.444247E-15,2.1548685E-17,1.3174267E-16
6002.8867,4.3570502E-15,2.1338188E-17,1.3289502E-16
6007.098,4.271865E-15,2.1123101E-17,1.3249759E-16
6011.3096,4.1829612E-15,2.0880267E-17,1.215674E-16
6015.521,4.0584076E-15,2.057806E-17,1.215881E-16
6019.7324,3.851793E-15,2.0075288E-17,1.230717E-16
6023.944,3.641072E-15,1.9566327E-17,1.298357E-16
6028.1553,3.4778245E-15,1.9142743E-17,1.2829443E-16
6032.366,3.2721372E-15,1.8574925E-17,1.1642477E-16
6036.5776,3.0825672E-15,1.8047544E-17,1.0920955E-16
6040.789,2.9163615E-15,1.7563182E-17,9.992455E-17
6045.0005,2.730437E-15,1.7048523E-17,1.0551987E-16
6049.212,2.5601967E-15,1.6561554E-17,1.08736194E-16
6053.4233,2.4011163E-15,1.6031511E-17,9.0792846E-17
6057.635,2.2624254E-15,1.5672378E-17,1.1420729E-16
6061.846,2.149705E-15,1.5298436E-17,1.0787873E-16
6066.0576,2.0666708E-15,1.5003741E-17,1.0151064E-16
6070.269,1.9532226E-15,1.4645466E-17,1.06608804E-16
6074.4805,1.828735E-15,1.4240526E-17,1.1099837E-16
6078.692,1.7717415E-15,1.3984866E-17,9.617441E-17
6082.9033,1.6951347E-15,1.3755676E-17,1.08349576E-16
6087.1147,1.6351172E-15,1.3504241E-17,9.925772E-17
6091.326,1.5781524E-15,1.3291262E-17,9.951651E-17
6095.5376,1.5231859E-15,1.310945E-17,1.0680887E-16
6099.749,1.4728059E-15,1.2935147E-17,1.1169031E-16
6103.9604,1.451068E-15,1.2775713E-17,9.12715E-17
6108.172,1.4116607E-15,1.2668251E-17,1.0620208E-16
6112.3833,1.4165611E-15,1.26423E-17,9.5964326E-17
6116.5947,1.3811764E-15,1.2520487E-17,1.02193334E-16
6120.806,1.3714356E-15,1.242153E-17,8.6751334E-17
6125.017,1.3614966E-15,1.2386185E-17,9.040435E-17
6129.2285,1.3537749E-15,1.2400914E-17,1.051216E-16
6133.44,1.3695445E-15,1.2427289E-17,9.90514E-17
6137.6514,1.3685297E-15,1.2423422E-17,1.02460043E-16
6141.863,1.3652915E-15,1.2396798E-17,1.00562154E-16
6146.074,1.3896035E-15,1.2476462E-17,9.9934264E-17
6150.2856,1.401546E-15,1.2519665E-17,1.02600796E-16
6154.497,1.4137337E-15,1.2567484E-17,1.0656442E-16
6158.7085,1.4389054E-15,1.2643236E-17,1.04243E-16
6162.92,1.456197E-15,1.2726523E-17,1.1351771E-16
6167.1313,1.4759443E-15,1.2780572E-17,1.1146756E-16
6171.343,1.5428482E-15,1.2982256E-17,1.03549275E-16
6175.554,1.5559181E-15,1.2990685E-17,9.515613E-17
6179.7656,1.6043469E-15,1.3152324E-17,9.747677E-17
6183.977,1.6291745E-15,1.3219457E-17,9.42738E-17
6188.1885,1.652326E-15,1.3319094E-17,1.0335313E-16
6192.4,1.6907015E-15,1.341232E-17,9.530735E-17
6196.6113,1.7312286E-15,1.3549595E-17,9.898582E-17
6200.8228,1.765301E-15,1.369041E-17,1.1040475E-16
6205.034,1.8306902E-15,1.3897911E-17,1.1157258E-16
6209.2456,1.908955E-15,1.4119713E-17,1.0661018E-16
6213.457,1.9609774E-15,1.4246998E-17,9.7916274E-17
6217.668,2.0363341E-15,1.453357E-17,1.1732473E-16
6221.8794,2.074003E-15,1.4658049E-17,1.244559E-16
6226.091,2.112473E-15,1.4811976E-17,1.4034163E-16
6230.3022,2.1854638E-15,1.4996978E-17,1.3295106E-16
6234.5137,2.2635365E-15,1.5246127E-17,1.4379877E-16
6238.725,2.3115245E-15,1.5351726E-17,1.3531628E-16
6242.9365,2.430652E-15,1.5651685E-17,1.244954E-16
6247.148,2.4830462E-15,1.5813604E-17,1.345916E-16
6251.3594,2.5268789E-15,1.5918705E-17,1.3201931E-16
6255.571,2.6405661E-15,1.623654E-17,1.3878668E-16
6259.782,2.7263759E-15,1.6449353E-17,1.398766E-16
6263.9937,2.7859869E-15,1.6525452E-17,1.1841857E-16
6268.205,2.866851E-15,1.6730555E-17,1.3015432E-16
6272.4165,2.9763681E-15,1.6962442E-17,1.2711446E-16
6276.628,3.084578E-15,1.720599E-17,1.2994948E-16
6280.8394,3.219406E-15,1.7607618E-17,1.6473068E-16
6285.051,3.3140494E-15,1.8005591E-17,2.3800342E-16
6289.262,3.4493727E-15,1.8345222E-17,2.4707086E-16
6293.4736,3.546967E-15,1.8575767E-17,2.4972924E-16
6297.685,3.583112E-15,1.8673088E-17,2.5572978E-16
6301.8965,3.6979506E-15,1.8899423E-17,2.3890366E-16
6306.108,3.7984693E-15,1.898083E-17,1.722716E-16
6310.319,3.8665123E-15,1.9058466E-17,1.372523E-16
6314.5303,3.9735933E-15,1.9251656E-17,1.166902E-16
6318.7417,4.0621633E-15,1.9458052E-17,1.2020796E-16
6322.953,4.130745E-15,1.96165E-17,1.2476986E-16
6327.1646,4.1948197E-15,1.9758921E-17,1.2937878E-16
6331.376,4.23131E-15,1.9819343E-17,1.2520478E-16
6335.5874,4.325992E-15,2.0010301E-17,1.2371132E-16
6339.799,4.3522344E-15,2.0038603E-17,1.1725754E-16
6344.0103,4.3918324E-15,2.0116913E-17,1.2075523E-16
6348.2217,4.442025E-15,2.0280038E-17,1.5278177E-16
6352.433,4.4750927E-15,2.0356882E-17,1.6251095E-16
6356.6445,4.4862905E-15,2.0357962E-17,1.5783578E-16
6360.856,4.55437E-15,2.0467368E-17,1.4959307E-16
6365.0674,4.5981654E-15,2.0531117E-17,1.4348102E-16
6369.279,4.6000974E-15,2.0488271E-17,1.2766101E-16
6373.49,4.619559E-15,2.0485484E-17,1.1396839E-16
6377.7017,4.615586E-15,2.0465474E-17,1.150092E-16
6381.913,4.6462463E-15,2.0502788E-17,1.09702976E-16
6386.1245,4.6673997E-15,2.053703E-17,1.1270095E-16
6390.336,4.7188464E-15,2.0625269E-17,1.09352734E-16
6394.5474,4.696723E-15,2.056187E-17,1.07237806E-16
6398.759,4.6969976E-15,2.0537914E-17,1.0211077E-16
6402.97,4.742182E-15,2.0625356E-17,1.05867154E-16
6407.181,4.720998E-15,2.0570642E-17,1.0748119E-16
6411.3926,4.697263E-15,2.0497552E-17,1.019137E-16
6415.604,4.691388E-15,2.0503605E-17,1.1670583E-16
6419.8154,4.6596307E-15,2.0397465E-17,1.0388023E-16
6424.027,4.656245E-15,2.0376191E-17,1.0272521E-16
6428.2383,4.67264E-15,2.039432E-17,1.0090184E-16
6432.4497,4.6437124E-15,2.030714E-17,9.458602E-17
6436.661,4.652826E-15,2.0385295E-17,1.01421885E-16
6440.8726,4.6396467E-15,2.0340078E-17,1.0016328E-16
6445.084,4.6038066E-15,2.0272058E-17,1.0878231E-16
6449.2954,4.551036E-15,2.014109E-17,1.0577181E-16
6453.507,4.569792E-15,2.0199251E-17,1.2277551E-16
6457.7183,4.5318715E-15,2.0116331E-17,1.3120334E-16
6461.9297,4.5321353E-15,2.010186E-17,1.3215683E-16
6466.141,4.4678333E-15,1.9965869E-17,1.4180172E-16
6470.3525,4.4691783E-15,1.9913862E-17,1.2577803E-16
6474.564,4.432608E-15,1.9790093E-17,1.1057251E-16
6478.7754,4.4006458E-15,1.9692993E-17,1.0276121E-16
6482.987,4.3894632E-15,1.9696338E-17,1.1841327E-16
6487.198,4.3711944E-15,1.964139E-17,1.1369482E-16
6491.4097,4.3379712E-15,1.961007E-17,1.3335838E-16
6495.621,4.3201327E-15,1.9572458E-17,1.3520442E-16
6499.832,4.2687572E-15,1.9456158E-17,1.3494652E-16
6504.0435,4.212918E-15,1.930581E-17,1.257753E-16
6508.255,4.1708876E-15,1.9157561E-17,1.0524254E-16
6512.4663,4.161847E-15,1.913904E-17,1.1325423E-16
6516.6777,4.136895E-15,1.909456E-17,1.2173642E-16
6520.889,4.082072E-15,1.8976549E-17,1.2496981E-16
6525.1006,4.0866295E-15,1.896132E-17,1.1486916E-16
6529.312,4.0231537E-15,1.8821376E-17,1.1570797E-16
6533.5234,3.964828E-15,1.8722116E-17,1.3250523E-16
6537.735,3.9292025E-15,1.8626142E-17,1.2896091E-16
6541.9463,3.9210104E-15,1.8580705E-17,1.2120479E-16
6546.1577,3.8854015E-15,1.8483536E-17,1.1732419E-16
6550.369,3.8394966E-15,1.8376901E-17,1.1950109E-16
6554.5806,3.7958172E-15,1.8296269E-17,1.2875975E-16
6558.792,3.7567546E-15,1.8194357E-17,1.2520774E-16
6563.0034,3.7508736E-15,1.8159174E-17,1.1810937E-16
6567.215,3.6862006E-15,1.8005254E-17,1.1740627E-16
6571.4263,3.661406E-15,1.7944992E-17,1.1865158E-16
6575.6377,3.6573375E-15,1.7924819E-17,1.1555697E-16
6579.849,3.637844E-15,1.7854244E-17,1.04786896E-16
6584.0605,3.5771396E-15,1.7721236E-17,1.1047334E-16
6588.272,3.5849577E-15,1.7727228E-17,1.07659965E-16
6592.483,3.537646E-15,1.7606878E-17,1.04185555E-16
6596.6943,3.5511153E-15,1.7636672E-17,1.07005606E-16
6600.906,3.520131E-15,1.7540254E-17,9.7994115E-17
6605.117,3.4653649E-15,1.7397918E-17,9.4437285E-17
6609.3286,3.4973931E-15,1.7456447E-17,8.9751254E-17
6613.54,3.4905298E-15,1.7452515E-17,9.816402E-17
6617.7515,3.4562648E-15,1.7381291E-17,1.038822E-16
6621.963,3.4366592E-15,1.7308491E-17,9.571554E-17
6626.1743,3.4234406E-15,1.7274408E-17,9.681401E-17
6630.3857,3.3905996E-15,1.7186552E-17,9.5005624E-17
6634.597,3.3739364E-15,1.7145757E-17,9.698473E-17
6638.8086,3.376595E-15,1.7138782E-17,9.414405E-17
6643.02,3.3891652E-15,1.7152225E-17,9.055365E-17
6647.2314,3.3616643E-15,1.7087541E-17,9.2758327E-17
6651.443,3.3263532E-15,1.6997136E-17,9.272936E-17
6655.6543,3.3267456E-15,1.6991593E-17,9.2801426E-17
6659.8657,3.3075571E-15,1.6957957E-17,1.0032046E-16
6664.077,3.2906245E-15,1.6882909E-17,8.799797E-17
6668.2886,3.2651386E-15,1.6817652E-17,8.8488076E-17
6672.5,3.2624192E-15,1.6799195E-17,8.639318E-17
6676.7114,3.2405577E-15,1.6735909E-17,8.3754035E-17
6680.923,3.2148371E-15,1.6671145E-17,8.5827506E-17
6685.134,3.2221127E-15,1.6687995E-17,8.814133E-17
6689.345,3.1977527E-15,1.6614323E-17,8.3989755E-17
6693.5566,3.1751712E-15,1.6546188E-17,8.111268E-17
6697.768,3.15191E-15,1.6500579E-17,8.784298E-17
6701.9795,3.131096E-15,1.6469992E-17,9.871471E-17
6706.191,3.1175812E-15,1.641206E-17,9.0637713E-17
6710.4023,3.0974553E-15,1.6351913E-17,8.828746E-17
6714.614,3.1066492E-15,1.6361636E-17,8.591829E-17
6718.825,3.0877822E-15,1.6322925E-17,9.161018E-17
6723.0366,3.0736276E-15,1.6270464E-17,8.641386E-17
6727.248,3.0436263E-15,1.619399E-17,8.8172735E-17
6731.4595,3.0395572E-15,1.6168805E-17,8.448708E-17
6735.671,3.0341262E-15,1.6175019E-17,9.476397E-17
6739.8823,3.019826E-15,1.6120776E-17,8.956766E-17
6744.0938,2.9875701E-15,1.5999365E-17,7.507777E-17
6748.305,2.9736928E-15,1.599303E-17,8.8598455E-17
6752.5166,2.9677343E-15,1.5972778E-17,8.8630146E-17
6756.728,2.9386978E-15,1.5890098E-17,8.653208E-17
6760.9395,2.9404675E-15,1.5882491E-17,8.430948E-17
6765.151,2.9174517E-15,1.5829396E-17,8.84529E-17
6769.3623,2.900474E-15,1.5767179E-17,8.157397E-17
6773.5737,2.8727038E-15,1.5693089E-17,8.305549E-17
6777.7847,2.852513E-15,1.565412E-17,8.90689E-17
6781.996,2.8444038E-15,1.5614331E-17,8.3217354E-17
6786.2075,2.8103E-15,1.5527763E-17,8.503088E-17
6790.419,2.78534E-15,1.545969E-17,8.5859237E-17
6794.6304,2.7976336E-15,1.545508E-17,7.3764936E-17
6798.842,2.7597193E-15,1.5374526E-17,8.254161E-17
6803.053,2.7518758E-15,1.5339861E-17,7.916137E-17
6807.2646,2.7357692E-15,1.5309275E-17,8.5964097E-17
6811.476,2.7251453E-15,1.5286586E-17,8.99358E-17
6815.6875,2.6669603E-15,1.5216394E-17,1.2378068E-16
6819.899,2.705334E-15,1.5369054E-17,1.4830041E-16
6824.1104,2.6564842E-15,1.5240002E-17,1.5046879E-16
6828.322,2.6792273E-15,1.5300838E-17,1.5198602E-16
6832.533,2.6399747E-15,1.5198466E-17,1.5374923E-16
6836.7446,2.6230876E-15,1.5116866E-17,1.3964431E-16
6840.956,2.5980891E-15,1.4973891E-17,1.1208657E-16
6845.1675,2.6152572E-15,1.4987558E-17,1.05714026E-16
6849.379,2.6025841E-15,1.5000214E-17,1.3878374E-16
6853.5903,2.5529734E-15,1.4767573E-17,1.3505324E-16
6857.802,2.5017268E-15,1.445949E-17,1.3637925E-16
6862.013,2.4872237E-15,1.4147674E-17,1.3184378E-16
6866.2246,2.5384589E-15,1.4000603E-17,1.3122908E-16
6870.4355,2.5524633E-15,1.3845119E-17,1.261898E-16
6874.647,2.5815E-15,1.3818622E-17,9.6304245E-17
6878.8584,2.620265E-15,1.3982544E-17,8.754238E-17
6883.07,2.617928E-15,1.4095356E-17,9.188546E-17
6887.2812,2.5724698E-15,1.4089735E-17,1.06504904E-16
6891.4927,2.5624436E-15,1.4087268E-17,1.0072479E-16
6895.704,2.5816751E-15,1.4191336E-17,1.0460154E-16
6899.9155,2.5741139E-15,1.423266E-17,1.0163917E-16
6904.127,2.5851657E-15,1.434967E-17,1.047459E-16
6908.3384,2.582913E-15,1.4469091E-17,1.1987091E-16
6912.55,2.5362659E-15,1.4454263E-17,1.317326E-16
6916.761,2.5403225E-15,1.4499522E-17,1.2174333E-16
6920.9727,2.511857E-15,1.4457438E-17,1.1514439E-16
6925.184,2.5008311E-15,1.4472056E-17,1.1862473E-16
6929.3955,2.484269E-15,1.4457539E-17,1.1992688E-16
6933.607,2.4525373E-15,1.4407169E-17,1.2673622E-16
6937.8184,2.445091E-15,1.4397927E-17,1.2728547E-16
6942.03,2.4206211E-15,1.434363E-17,1.2818818E-16
6946.241,2.4287575E-15,1.4336137E-17,1.1541744E-16
6950.4526,2.4527605E-15,1.4394174E-17,1.09042674E-16
6954.664,2.4380569E-15,1.4375934E-17,1.1292543E-16
6958.8755,2.4041323E-15,1.4253124E-17,9.5639867E-17
6963.087,2.3966363E-15,1.4266227E-17,1.03528403E-16
6967.298,2.3662405E-15,1.421754E-17,1.111723E-16
6971.5093,2.3518098E-15,1.4175924E-17,1.08221886E-16
6975.7207,2.3507631E-15,1.4160882E-17,1.0377373E-16
6979.932,2.3312123E-15,1.4084014E-17,9.785905E-17
6984.1436,2.317603E-15,1.4060155E-17,1.07305244E-16
6988.355,2.318168E-15,1.400903E-17,9.078541E-17
6992.5664,2.3017392E-15,1.3946854E-17,8.56823E-17
6996.778,2.276806E-15,1.3905715E-17,9.659032E-17
7000.9893,2.2885981E-15,1.3927362E-17,9.24077E-17
7005.2007,2.286955E-15,1.3938683E-17,9.757979E-17
7009.412,2.279057E-15,1.3913628E-17,9.5815996E-17
7013.6235,2.2813443E-15,1.389447E-17,8.6157525E-17
7017.835,2.2960738E-15,1.3923944E-17,8.127632E-17
7022.0464,2.2713316E-15,1.38667904E-17,8.42739E-17
7026.258,2.256397E-15,1.3834255E-17,8.651341E-17
7030.469,2.2157255E-15,1.3751789E-17,9.521784E-17
7034.6807,2.2567537E-15,1.3878987E-17,9.864354E-17
7038.892,2.2688597E-15,1.3883967E-17,8.6756536E-17
7043.1035,2.255802E-15,1.3872654E-17,9.571165E-17
7047.315,2.236916E-15,1.380427E-17,8.9172194E-17
7051.5264,2.2470694E-15,1.38403695E-17,9.1760336E-17
7055.738,2.272602E-15,1.3904205E-17,8.806477E-17
7059.9487,2.2517151E-15,1.3852774E-17,8.955406E-17
7064.16,2.2554516E-15,1.3856957E-17,8.497382E-17
7068.3716,2.239865E-15,1.3810275E-17,8.297104E-17
7072.583,2.239958E-15,1.3815159E-17,8.301378E-17
7076.7944,2.260687E-15,1.3872876E-17,8.229423E-17
7081.006,2.2628276E-15,1.3886768E-17,8.3628906E-17
7085.2173,2.2448162E-15,1.3836443E-17,8.3079996E-17
7089.4287,2.263217E-15,1.3894848E-17,8.4406535E-17
7093.64,2.258744E-15,1.38925E-17,8.842504E-17
7097.8516,2.2743974E-15,1.393296E-17,8.617784E-17
7102.063,2.2545489E-15,1.3858681E-17,7.7632224E-17
7106.2744,2.2506201E-15,1.3849439E-17,7.7573104E-17
7110.486,2.2434909E-15,1.3840862E-17,8.070948E-17
7114.6973,2.2429028E-15,1.3829355E-17,7.593772E-17
7118.9087,2.244825E-15,1.3840746E-17,7.8234855E-17
7123.12,2.2387201E-15,1.3834572E-17,8.162447E-17
7127.3315,2.2109241E-15,1.3775141E-17,8.7555526E-17
7131.543,2.211845E-15,1.3779823E-17,8.8524327E-17
7135.7544,2.227582E-15,1.379604E-17,7.794476E-17
7139.966,2.2041815E-15,1.3765699E-17,9.188428E-17
7144.1772,2.1672911E-15,1.3678544E-17,9.8539095E-17
7148.3887,2.19029E-15,1.3679851E-17,7.657963E-17
7152.5996,2.1608298E-15,1.3607824E-17,8.3704206E-17
7156.811,2.1759364E-15,1.3609512E-17,7.686485E-17
7161.0225,2.1700461E-15,1.354485E-17,7.117639E-17
7165.234,2.1469583E-15,1.3447759E-17,7.7338416E-17
7169.4453,2.1361315E-15,1.3376899E-17,8.086147E-17
7173.6567,2.1331568E-15,1.3330836E-17,8.643827E-17
7177.868,2.1300513E-15,1.3240298E-17,7.3919116E-17
7182.0796,2.176617E-15,1.331021E-17,6.554594E-17
7186.291,2.1706824E-15,1.32911215E-17,7.298862E-17
7190.5024,2.132568E-15,1.3169745E-17,6.972011E-17
7194.714,2.1512153E-15,1.3246379E-17,7.405677E-17
7198.9253,2.1661735E-15,1.3296319E-17,6.707178E-17
7203.1367,2.1679095E-15,1.3395975E-17,8.357955E-17
7207.348,2.1886603E-15,1.34871625E-17,7.464396E-17
7211.5596,2.1771785E-15,1.34887945E-17,6.5411755E-17
7215.771,2.1502215E-15,1.3464938E-17,7.038101E-17
7219.9824,2.1109929E-15,1.3409134E-17,8.799198E-17
7224.194,2.1054082E-15,1.3501942E-17,1.3608899E-16
7228.4053,2.1036286E-15,1.3629158E-17,1.9718473E-16
7232.6167,2.1108576E-15,1.3682133E-17,2.2583264E-16
7236.828,2.1368075E-15,1.3697503E-17,2.1466062E-16
7241.0396,2.1183875E-15,1.3689189E-17,2.332174E-16
7245.2505,2.1358736E-15,1.3708381E-17,2.2021243E-16
7249.462,2.1259383E-15,1.35330495E-17,1.6076542E-16
7253.6733,2.1191183E-15,1.3385889E-17,1.09424904E-16
7257.885,2.1181499E-15,1.3417631E-17,1.1851673E-16
7262.096,2.0906255E-15,1.3540562E-17,1.8944518E-16
7266.3076,2.0862388E-15,1.3541322E-17,1.9517923E-16
7270.519,2.1074567E-15,1.3708187E-17,2.3622457E-16
7274.7305,2.0918571E-15,1.3658394E-17,2.3354472E-16
7278.942,2.1012401E-15,1.3715448E-17,2.4224046E-16
7283.1533,2.1142455E-15,1.3626809E-17,1.9093953E-16
7287.3647,2.0410362E-15,1.3338055E-17,1.5636042E-16
7291.576,2.047498E-15,1.32840475E-17,1.2760362E-16
7295.7876,2.0635431E-15,1.33213906E-17,1.2294734E-16
7299.999,2.0612407E-15,1.3441154E-17,1.6670929E-16
7304.2104,2.0484073E-15,1.3457012E-17,1.833709E-16
7308.422,2.0119946E-15,1.3391073E-17,1.9374553E-16
7312.6333,2.0202898E-15,1.343144E-17,1.948419E-16
7316.8447,1.974142E-15,1.3336405E-17,2.0246273E-16
7321.056,1.978626E-15,1.3348477E-17,2.0072959E-16
7325.2676,1.94018E-15,1.3270213E-17,2.0598224E-16
7329.479,1.948772E-15,1.3322951E-17,2.1191692E-16
7333.6904,1.8758955E-15,1.3132733E-17,2.1608239E-16
7337.9014,1.8893703E-15,1.3105102E-17,1.9039037E-16
7342.113,1.8744227E-15,1.3111856E-17,2.0926165E-16
7346.324,1.8474163E-15,1.29951265E-17,1.9449838E-16
7350.5356,1.808155E-15,1.2737558E-17,1.4470191E-16
7354.747,1.760134E-15,1.26879125E-17,1.7837763E-16
7358.9585,1.7176314E-15,1.25662086E-17,1.8197762E-16
7363.17,1.6827496E-15,1.24438975E-17,1.76932E-16
7367.3813,1.6684106E-15,1.23519605E-17,1.602101E-16
7371.593,1.6066559E-15,1.2170857E-17,1.6365682E-16
7375.804,1.5312202E-15,1.1846677E-17,1.3542356E-16
7380.0156,1.4365021E-15,1.144546E-17,1.05350576E-16
7384.227,1.3935882E-15,1.1332975E-17,1.1511706E-16
7388.4385,1.3482186E-15,1.12385175E-17,1.3490327E-16
7392.65,1.3095801E-15,1.1108293E-17,1.3471355E-16
7396.8613,1.2442655E-15,1.08563535E-17,1.2726568E-16
7401.0728,1.1843852E-15,1.0612766E-17,1.1924908E-16
7405.284,1.1416407E-15,1.0450323E-17,1.1686226E-16
7409.4956,1.0639265E-15,1.01233614E-17,1.06250714E-16
7413.707,1.0135007E-15,9.855274E-18,8.6130466E-17
7417.9185,9.787423E-16,9.743316E-18,9.2347966E-17
7422.13,9.614933E-16,9.726994E-18,1.0667287E-16
7426.3413,9.229349E-16,9.570782E-18,1.0659918E-16
7430.5522,8.92526E-16,9.4612166E-18,1.10028184E-16
7434.7637,8.934147E-16,9.421315E-18,9.8208534E-17
7438.975,8.7392905E-16,9.327821E-18,9.445183E-17
7443.1865,8.7373307E-16,9.300415E-18,8.75203E-17
7447.398,8.6724104E-16,9.256285E-18,8.233203E-17
7451.6094,8.6726883E-16,9.27711E-18,8.74309E-17
7455.821,8.584755E-16,9.272127E-18,9.494794E-17
7460.032,8.412046E-16,9.298219E-18,1.2106471E-16
7464.2437,8.458114E-16,9.363481E-18,1.3284447E-16
7468.455,8.56666E-16,9.447618E-18,1.4308389E-16
7472.6665,8.703236E-16,9.511468E-18,1.4534342E-16
7476.878,8.7537E-16,9.5325915E-18,1.4457186E-16
7481.0894,9.071622E-16,9.6255815E-18,1.3372801E-16
7485.301,9.193735E-16,9.5949535E-18,1.1192568E-16
7489.512,9.174718E-16,9.534061E-18,9.673263E-17
7493.7236,9.396754E-16,9.593412E-18,8.845414E-17
7497.935,9.695796E-16,9.67424E-18,7.676812E-17
7502.1465,1.0020049E-15,9.799303E-18,7.536087E-17
7506.358,1.0269555E-15,9.9952154E-18,1.01723085E-16
7510.5693,1.0306254E-15,1.0184757E-17,1.5049773E-16
7514.781,1.0889329E-15,1.04669615E-17,1.673877E-16
7518.992,1.1163534E-15,1.0605351E-17,1.7761798E-16
7523.2036,1.1342208E-15,1.0659128E-17,1.7281697E-16
7527.4146,1.1617995E-15,1.0763995E-17,1.7363451E-16
7531.626,1.1985108E-15,1.07805796E-17,1.3732637E-16
7535.8374,1.2151935E-15,1.0698063E-17,9.393148E-17
7540.049,1.2495782E-15,1.0811367E-17,8.908792E-17
7544.2603,1.2754349E-15,1.0923317E-17,9.3352765E-17
7548.4717,1.2675171E-15,1.08951226E-17,9.184202E-17
7552.683,1.3003686E-15,1.1026864E-17,9.562004E-17
7556.8945,1.2917599E-15,1.1109333E-17,1.2881366E-16
7561.106,1.300193E-15,1.1202275E-17,1.4613355E-16
7565.3174,1.3167981E-15,1.1235923E-17,1.3706736E-16
7569.529,1.3206104E-15,1.12594774E-17,1.4037721E-16
7573.74,1.3264572E-15,1.12949015E-17,1.4811205E-16
7577.9517,1.3152545E-15,1.1134119E-17,1.2632457E-16
7582.163,1.278999E-15,1.079513E-17,1.0660134E-16
7586.3745,1.2383324E-15,1.0310492E-17,1.0154843E-16
7590.586,1.1600528E-15,1.0894707E-17,9.2502595E-17
7594.7974,1.0302599E-15,1.1594876E-17,7.1004793E-17
7599.009,1.2501973E-15,8.303153E-18,6.342905E-17
7603.22,1.417418E-15,8.281269E-18,7.4750836E-17
7607.4316,1.5668735E-15,8.958039E-18,7.069341E-17
7611.643,1.613033E-15,8.9623415E-18,6.778409E-17
7615.8545,1.5752902E-15,9.353548E-18,7.809504E-17
7620.0654,1.556394E-15,9.577991E-18,7.945898E-17
7624.277,1.5401906E-15,9.604624E-18,8.033333E-17
7628.4883,1.5023055E-15,9.457284E-18,7.213764E-17
7632.6997,1.5447213E-15,9.581023E-18,7.097199E-17
