4020.  -5.301398E-17
4029.19999977395  9.851372E-17
4038.39999954789  2.217805E-17
4047.59999932183  2.893573E-17
4056.79999909578  1.180996E-17
4065.99999886972  -8.243237E-17
4075.19999864366  3.587567E-17
4084.39999841761  2.559504E-17
4093.59999819155  1.094353E-16
4102.7999979655  4.790819E-17
4111.99999773944  4.845288E-17
4121.19999751338  1.862751E-17
4130.39999728733  1.278526E-16
4139.59999706127  2.322175E-17
4148.79999683522  9.746137E-17
4157.99999660916  8.916505E-17
4167.1999963831  1.360039E-16
4176.39999615705  4.817834E-17
4185.59999593099  7.766829E-17
4194.79999570494  8.965391E-17
4203.99999547888  7.709053E-17
4213.19999525282  1.238786E-16
4222.39999502677  9.583985E-17
4231.59999480071  1.251329E-16
4240.79999457465  1.103519E-16
4249.9999943486  7.653959E-17
4259.19999412254  1.388563E-16
4268.39999389649  8.184940E-17
4277.59999367043  7.395111E-17
4286.79999344437  1.090121E-16
4295.99999321832  1.051795E-16
4305.19999299226  6.674919E-17
4314.39999276621  6.885984E-17
4323.59999254015  9.787083E-17
4332.79999231409  5.841126E-17
4341.99999208804  1.132046E-16
4351.19999186198  9.325951E-17
4360.39999163592  1.422601E-16
4369.59999140987  1.242275E-16
4378.79999118381  9.749976E-17
4387.99999095776  1.652646E-16
4397.1999907317  1.354024E-16
4406.39999050565  1.273821E-16
4415.59999027959  6.366028E-17
4424.79999005353  1.586969E-16
4433.99998982748  1.402009E-16
4443.19998960142  1.105740E-16
4452.39998937536  5.848788E-17
4461.59998914931  1.349331E-16
4470.79998892325  1.043607E-16
4479.9999886972  9.881881E-17
4489.19998847114  9.787368E-17
4498.39998824509  1.372844E-16
4507.59998801903  1.2E-16
4516.79998779297  1.065941E-16
4525.99998756692  1.165338E-16
4535.19998734086  9.926986E-17
4544.3999871148  9.905344E-17
4553.59998688875  1.064580E-16
4562.79998666269  1.027869E-16
4571.99998643664  9.451888E-17
4581.19998621058  9.399935E-17
4590.39998598452  9.420870E-17
4599.59998575847  1.108866E-16
4608.79998553241  5.780988E-17
4617.99998530636  8.886663E-17
4627.1999850803  9.904656E-17
4636.39998485424  4.722456E-17
4645.59998462819  1.639702E-17
4654.79998440213  4.363637E-17
4663.99998417607  5.401708E-17
4673.19998395002  9.424163E-17
4682.39998372396  7.674032E-17
4691.59998349791  7.168371E-17
4700.79998327185  4.624816E-17
4709.9999830458  7.403046E-17
4719.19998281974  4.290140E-17
4728.39998259368  7.072242E-17
4737.59998236763  8.198229E-17
4746.79998214157  6.063490E-17
4755.99998191551  7.094427E-17
4765.19998168946  8.639022E-17
4774.3999814634  6.062646E-17
4783.59998123735  7.368162E-17
4792.79998101129  9.482506E-17
4801.99998078523  7.393551E-17
4811.19998055918  8.229512E-17
4820.39998033312  8.8E-17
4829.59998010707  9.649094E-17
4838.79997988101  7.539469E-17
4847.99997965495  1.061647E-16
4857.1999794289  8.077673E-17
4866.39997920284  1.053774E-16
4875.59997897679  9.604948E-17
4884.79997875073  8.874860E-17
4893.99997852467  9.061440E-17
4903.19997829862  7.367553E-17
4912.39997807256  8.922915E-17
4921.59997784651  9.372715E-17
4930.79997762045  8.601161E-17
4939.99997739439  8.600191E-17
4949.19997716834  8.581659E-17
4958.39997694228  8.996528E-17
4967.59997671622  8.348407E-17
4976.79997649017  1.022046E-16
4985.99997626411  8.325404E-17
4995.19997603806  8.685477E-17
5004.399975812  8.659140E-17
5013.59997558594  9.675554E-17
5022.79997535989  7.595573E-17
5031.99997513383  9.818032E-17
5041.19997490778  7.619218E-17
5050.39997468172  9.469251E-17
5059.59997445566  7.232812E-17
5068.79997422961  7.299417E-17
5077.99997400355  8.299810E-17
5087.1999737775  7.293345E-17
5096.39997355144  6.157391E-17
5105.59997332538  3.769744E-17
5114.79997309933  6.861406E-17
5123.99997287327  3.540039E-17
5133.19997264721  7.024068E-17
5142.39997242116  5.490785E-17
5151.5999721951  6.129129E-17
5160.79997196905  7.425616E-17
5169.99997174299  -4.546355E-18
5179.19997151694  7.065071E-17
5188.39997129088  6.710873E-17
5197.59997106482  6.149672E-17
5206.79997083877  7.042796E-17
5215.99997061271  6.088650E-17
5225.19997038665  4.851997E-17
5234.3999701606  7.232703E-17
5243.59996993454  6.227063E-17
5252.79996970849  7.087049E-17
5261.99996948243  7.276574E-17
5271.19996925637  5.394857E-17
5280.39996903032  6.569185E-17
5289.59996880426  5.718515E-17
5298.79996857821  5.051417E-17
5307.99996835215  7.262961E-17
5317.19996812609  5.905996E-17
5326.39996790004  5.563615E-17
5335.59996767398  4.698126E-17
5344.79996744792  4.362115E-17
5353.99996722187  5.814671E-17
5363.19996699581  4.772801E-17
5372.39996676976  7.321129E-17
5381.5999665437  3.571876E-17
5390.79996631765  3.463854E-17
5399.99996609159  3.726946E-17
5409.19996586553  5.469928E-17
5418.39996563948  6.040376E-17
5427.59996541342  4.148748E-17
5436.79996518736  5.094759E-17
5445.99996496131  4.867522E-17
5455.19996473525  6.740193E-17
5464.3999645092  6.772885E-17
5473.59996428314  5.135813E-17
5482.79996405708  6.102847E-17
5491.99996383103  5.928508E-17
5501.19996360497  6.578779E-17
5510.39996337892  8.326242E-17
5519.59996315286  6.959322E-17
5528.7999629268  6.858605E-17
5537.99996270075  8.179347E-17
5547.19996247469  7.557820E-17
5556.39996224864  7.666177E-17
5565.59996202258  8.265032E-17
5574.79996179652  9.562177E-17
5583.99996157047  6.521273E-17
5593.19996134441  9.486769E-17
5602.39996111836  8.087535E-17
5611.5999608923  3.844720E-17
5620.79996066624  7.883732E-17
5629.99996044019  7.694673E-17
5639.19996021413  8.025542E-17
5648.39995998807  7.695670E-17
5657.59995976202  6.418323E-17
5666.79995953596  5.094478E-17
5675.99995930991  6.527795E-17
5685.19995908385  5.953994E-17
5694.3999588578  5.181646E-17
5703.59995863174  5.662208E-17
5712.79995840568  6.778087E-17
5721.99995817963  5.337460E-17
5731.19995795357  3.677265E-17
5740.39995772751  4.557108E-17
5749.59995750146  4.719909E-17
5758.7999572754  5.322407E-17
5767.99995704935  6.101032E-17
5777.19995682329  4.719012E-17
5786.39995659723  4.864676E-17
5795.59995637118  4.729411E-17
5804.79995614512  5.595651E-17
5813.99995591907  5.317733E-17
5823.19995569301  3.240011E-17
5832.39995546695  6.497295E-17
5841.5999552409  5.381562E-17
5850.79995501484  4.726614E-17
5859.99995478878  7.657193E-17
5869.19995456273  5.117953E-17
5878.39995433667  3.549061E-17
5887.59995411062  6.298731E-17
5896.79995388456  3.219626E-17
5905.9999536585  5.451062E-17
5915.19995343245  6.279189E-17
5924.39995320639  4.346763E-17
5933.59995298034  5.619251E-17
5942.79995275428  3.777110E-17
5951.99995252822  5.200717E-17
5961.19995230217  5.728381E-17
5970.39995207611  3.927885E-17
5979.59995185006  6.245442E-17
5988.799951624  4.555131E-17
5997.99995139794  7.463617E-17
6007.19995117189  8.455298E-17
6016.39995094583  7.536270E-17
6025.59995071978  4.632803E-17
6034.79995049372  6.544464E-17
6043.99995026767  7.224585E-17
6053.19995004161  4.468286E-17
6062.39994981555  6.310411E-17
6071.5999495895  6.860657E-17
6080.79994936344  6.645912E-17
6089.99994913738  8.034123E-17
6099.19994891133  6.777483E-17
6108.39994868527  6.346802E-17
6117.59994845922  8.508433E-17
6126.79994823316  7.304276E-17
6135.9999480071  7.649905E-17
6145.19994778105  6.227206E-17
6154.39994755499  6.378811E-17
6163.59994732893  5.779202E-17
6172.79994710288  6.539655E-17
6181.99994687682  5.503408E-17
6191.19994665077  8.440109E-17
6200.39994642471  9.165346E-17
6209.59994619865  6.131475E-17
6218.7999459726  6.074984E-17
6227.99994574654  6.334066E-17
6237.19994552049  5.457637E-17
6246.39994529443  5.689818E-17
6255.59994506837  6.350540E-17
6264.79994484232  5.353030E-17
6273.99994461626  5.886054E-17
6283.19994439021  6.598261E-17
6292.39994416415  5.441261E-17
6301.59994393809  6.857443E-17
6310.79994371204  5.817070E-17
6319.99994348598  6.313960E-17
6329.19994325993  8.724632E-17
6338.39994303387  6.045438E-17
6347.59994280781  9.484415E-17
6356.79994258176  5.298544E-17
6365.9999423557  7.232298E-17
6375.19994212965  6.895543E-17
6384.39994190359  5.720375E-17
6393.59994167753  5.289459E-17
6402.79994145148  7.282997E-17
6411.99994122542  6.473533E-17
6421.19994099936  7.478166E-17
6430.39994077331  6.085810E-17
6439.59994054725  6.046021E-17
6448.7999403212  4.214026E-17
6457.99994009514  4.984020E-17
6467.19993986909  4.376108E-17
6476.39993964303  4.766382E-17
6485.59993941697  4.085264E-17
6494.79993919092  5.292395E-17
6503.99993896486  3.550850E-17
6513.1999387388  2.250101E-17
6522.39993851275  4.126255E-17
6531.59993828669  3.314977E-17
6540.79993806064  3.234493E-17
6549.99993783458  2.552527E-17
6559.19993760852  2.759716E-17
6568.39993738247  3.688564E-17
6577.59993715641  2.279045E-17
6586.79993693035  1.942676E-17
6595.9999367043  -9.911106E-18
6605.19993647824  5.408037E-18
6614.39993625219  3.375893E-17
6623.59993602613  3.568607E-17
6632.79993580007  2.392146E-17
6641.99993557402  4.256428E-17
6651.19993534796  3.426091E-17
6660.39993512191  3.099754E-17
6669.59993489585  3.732175E-17
6678.79993466979  5.502158E-17
6687.99993444374  4.733946E-17
6697.19993421768  5.100579E-17
6706.39993399163  5.379413E-17
6715.59993376557  5.377512E-17
6724.79993353951  3.552417E-17
6733.99993331346  4.782141E-17
6743.1999330874  4.319276E-17
6752.39993286135  4.655749E-17
6761.59993263529  6.946886E-17
6770.79993240923  4.623515E-17
6779.99993218318  5.467477E-17
6789.19993195712  5.836063E-17
6798.39993173107  6.693657E-17
6807.59993150501  7.828690E-17
6816.79993127895  8.035364E-17
6825.9999310529  3.375291E-17
6835.19993082684  5.633954E-17
6844.39993060078  5.560278E-17
6853.59993037473  6.608879E-17
6862.79993014867  3.653764E-17
6871.99992992262  4.913060E-17
6881.19992969656  4.858334E-17
6890.3999294705  5.581759E-17
6899.59992924445  2.288436E-17
6908.79992901839  7.214446E-17
6917.99992879234  5.966131E-17
6927.19992856628  3.903826E-17
6936.39992834023  4.628636E-17
6945.59992811417  5.488623E-17
6954.79992788811  3.752667E-17
6963.99992766206  4.063889E-17
6973.199927436  5.754902E-17
6982.39992720994  6.200697E-17
6991.59992698389  3.923408E-17
7000.79992675783  7.241871E-17
7009.99992653177  7.637689E-17
7019.19992630572  5.616232E-17
7028.39992607966  5.021917E-17
7037.59992585361  5.321034E-17
7046.79992562755  5.148927E-17
7055.9999254015  3.276331E-17
7065.19992517544  6.889037E-17
7074.39992494938  3.603615E-17
7083.59992472333  3.129281E-17
7092.79992449727  6.470719E-17
7101.99992427121  3.878972E-17
7111.19992404516  4.895767E-17
7120.3999238191  3.671320E-17
7129.59992359305  2.853466E-17
7138.79992336699  4.817674E-17
7147.99992314094  1.547029E-17
7157.19992291488  4.492762E-17
7166.39992268882  2.424737E-18
7175.59992246277  5.344371E-17
7184.79992223671  2.762046E-17
7193.99992201065  4.442337E-17
7203.1999217846  5.582268E-18
7212.39992155854  -2.652175E-18
7221.59992133249  5.565962E-17
7230.79992110643  -8.079181E-18
7239.99992088037  3.765906E-17
7249.19992065432  4.588251E-17
7258.39992042826  4.024484E-17
7267.5999202022  5.702224E-17
7276.79991997615  5.402027E-17
7285.99991975009  3.881112E-17
7295.19991952404  -2.077659E-18
7304.39991929798  5.078684E-17
7313.59991907193  5.928853E-17
7322.79991884587  2.837936E-17
7331.99991861981  3.315995E-17
7341.19991839376  3.241888E-17
7350.3999181677  1.112994E-17
7359.59991794164  2.805477E-17
7368.79991771559  4.519911E-17
7377.99991748953  4.047445E-19
7387.19991726348  3.297800E-17
7396.39991703742  5.046666E-17
7405.59991681136  5.416043E-17
7414.79991658531  2.282122E-17
7423.99991635925  5.650132E-17
7433.1999161332  4.079174E-17
7442.39991590714  5.888954E-17
7451.59991568108  7.304951E-17
7460.79991545503  5.260281E-17
7469.99991522897  1.413806E-17
7479.19991500292  5.977073E-17
7488.39991477686  5.750656E-17
7497.5999145508  4.357800E-17
7506.79991432475  2.699712E-18
7515.99991409869  3.917938E-17
7525.19991387264  2.126819E-17
7534.39991364658  5.239459E-17
7543.59991342052  2.449489E-17
7552.79991319447  -3.032356E-18
7561.99991296841  2.856957E-17
7571.19991274235  -1.410957E-17
7580.3999125163  3.625776E-17
7589.59991229024  2.670144E-17
7598.79991206419  5.304053E-18
7607.99991183813  -2.312665E-17
7617.19991161207  -1.997460E-18
7626.39991138602  6.282784E-17
7635.59991115996  1.136327E-17
7644.79991093391  1.534966E-17
7653.99991070785  -1.360078E-17
7663.19991048179  2.282269E-17
7672.39991025574  2.686346E-17
7681.59991002968  2.128017E-17
7690.79990980363  1.386991E-17
7699.99990957757  1.929516E-18
7709.19990935151  9.706681E-18
7718.39990912546  2.643615E-17
7727.5999088994  1.683626E-17
7736.79990867335  6.258519E-17
7745.99990844729  -4.277318E-17
7755.19990822123  7.718593E-17
7764.39990799518  -2.837925E-17
7773.59990776912  6.412501E-17
7782.79990754307  1.847941E-17
7791.99990731701  -4.631102E-17
7801.19990709095  -2.547867E-17
7810.3999068649  7.523071E-17
7819.59990663884  9.687480E-18
7828.79990641279  -2.020188E-17
7837.99990618673  -1.990607E-17
7847.19990596067  3.864085E-17
7856.39990573462  -2.591559E-17
7865.59990550856  -4.815223E-17
7874.7999052825  6.858106E-17
7883.99990505645  5.658496E-17
7893.19990483039  -3.551055E-17
7902.39990460434  -7.903653E-17
7911.59990437828  -2.783275E-17
7920.79990415222  6.844561E-17
7929.99990392617  1.544191E-16
7939.19990370011  2.876162E-17
7948.39990347406  2.248577E-17
7957.599903248  7.479036E-17
7966.79990302194  -2.927726E-17
7975.99990279589  -1.274810E-16
7985.19990256983  9.821699E-17
7994.39990234378  -1.469225E-16
